Date,Open,High,Low,Close,Volume,signal,bull_patterns,bear_patterns
2016-11-01,262.47828659672655,266.47035179211406,242.97007918730378,251.00108337402344,861450.0,[],[],[]
2016-12-01,249.50410467553814,255.49218749999997,242.01897428067588,254.99317932128903,567078.0,[],[],[]
2017-01-01,254.49412936522006,270.4624021168535,253.5559917066833,265.4723205566406,957451.0,[],[],[]
2017-02-01,266.96938327556484,278.1970826019369,263.4763259242958,273.4564819335937,727514.0,[],[],[]
2017-03-01,277.4485321318868,289.42472836720094,274.45448322398875,284.4346923828125,1338112.0,[],[],[]
2017-04-01,287.42870332792205,289.1752319335937,274.62984974488995,283.48065185546875,1192468.0,[],[],[]
2017-05-01,284.7284420934217,298.45327022602453,284.7284420934217,294.21099853515625,1449105.0,[],[],[]
2017-06-01,295.45874271716104,315.42215820312504,291.466057004767,310.4313049316406,1010976.0,[],[],[]
2017-07-01,314.17446962486963,323.40755806670415,306.47356448102335,317.1689453125,1199082.0,[],[],[]
2017-08-01,317.4185199421912,337.38194994871316,313.5785062113189,335.1360168457031,1800642.0,[],[],[]
2017-09-01,332.8901821806798,337.5814955890268,321.8783544340886,327.4002380371094,1558980.0,[],[],[]
2017-10-01,329.3965612139021,356.3471801064231,329.3915654830302,352.853515625,1720042.0,[],[],[]
2017-11-01,355.848082299326,371.3197056079201,352.35448977368026,353.3526611328125,2488618.0,[],[],[]
2017-12-01,351.3563686989705,361.8371809030267,346.36544504049266,361.3380737304688,7687953.0,[],[],[]
2018-01-01,362.336182819235,382.29959454417695,359.3416896263216,366.3288879394531,3078050.0,[],[],[]
2018-02-01,364.3325843443733,366.3288879394531,332.39107410682305,360.33984375,3718291.0,[],[],[]
2018-03-01,362.3362049040247,377.30878912795333,348.36181640625,353.3526611328125,4168362.0,[],[],[]
2018-04-01,353.3526611328125,353.3526611328125,339.42530722513686,349.4084167480469,2988112.0,[],[],[]
2018-05-01,349.4084215029103,369.3746032714844,349.4084215029103,368.3763427734375,2402085.0,[],[],[]
2018-06-01,369.3746526454522,376.36279296875,354.39996337890625,358.3932189941406,2359191.0,[],[],['dark_cloud_cover']
2018-07-01,356.39663256629035,368.37635000784974,352.40334386691245,361.38818359375,1884031.0,[],[],[]
2018-08-01,362.38648681640626,368.3763603210449,351.405029296875,357.3949584960937,1834466.0,[],[],[]
2018-09-01,363.38475385513516,364.38306361847344,334.4338073730469,349.4084167480469,1461778.0,[],[],[]
2018-10-01,352.40336022343195,353.20199587889914,308.4777359872494,325.44903564453125,1807805.0,[],[],[]
2018-11-01,325.44898157943913,342.42029533498095,321.4557425416546,340.4236755371094,1599149.0,[],[],[]
2018-12-01,353.4017028808594,353.4017028808594,325.4490074099475,330.4405517578125,1065980.0,[],[],[]
2019-01-01,324.45067659430543,338.42705419042085,321.4557472718965,337.4287109375,2082310.0,[],[],[]
2019-02-01,340.42366610927775,361.3881719277506,337.4287109375,352.4033508300781,1642866.0,[],[],[]
2019-03-01,350.40677319542834,363.3847961425781,343.41864013671875,363.3847961425781,2051500.0,[],[],[]
2019-04-01,366.3797185512189,372.36960137408715,360.4505920410156,360.4505920410156,2471041.0,[],[],[]
2019-05-01,361.44910481770836,362.4475830078125,339.48253609283626,348.4689025878906,3029029.0,[],[],[]
2019-06-01,348.46886010603464,371.43382691427536,346.47190981006486,367.4399108886719,2149443.0,[],[],[]
2019-07-01,370.435327476143,384.41410114497495,367.4399108886719,381.91790771484375,2187123.0,[],[],[]
2019-08-01,382.4171447753906,382.4171447753906,345.4733996269031,358.4536437988281,3668994.0,[],[],[]
2019-09-01,363.446038443283,372.43231594947076,355.4582134225515,361.9483337402344,1955459.0,[],[],[]
2019-10-01,366.4414606067943,367.43993870109074,352.4627567248398,361.4490356445313,1879022.0,[],[],[]
2019-11-01,365.4429587382387,375.3278922575299,357.45518601286955,359.9513244628906,2195846.0,[],[],[]
2019-12-01,361.4490356445313,375.9749282612088,350.926063594964,367.4399108886719,4122468.0,[],[],[]
2020-01-01,369.4368857000716,387.89678736562104,346.4718512834821,349.46728515625,3214730.0,[],[],[]
2020-02-01,350.46583466865644,379.20700815049287,324.5054038174181,331.4947509765625,2644844.0,[],[],[]
2020-03-01,339.4825704356443,353.9714444769739,243.6286613710465,308.5297546386719,4989897.0,[],[],[]
2020-04-01,305.5342712402344,332.5607707630504,295.54949113434435,326.5686340332031,3704279.0,[],[],[]
2020-05-01,322.573974609375,349.3586264278599,313.585845285894,343.5462951660156,2712263.0,[],[],[]
2020-06-01,349.82294411274825,370.1780856323178,335.55680170747416,366.5159301757813,4938525.0,[],[],[]
2020-07-01,364.5185784979181,392.4816182454427,363.5198974609375,372.5079956054688,3146228.0,[],[],[]
2020-08-01,372.5079823544151,409.4591979980469,372.5079823544151,409.4591979980469,2562773.0,[],[],[]
2020-09-01,408.4604929454291,429.43283439242225,392.4816182454427,425.9373779296875,3086579.0,[],[],[]
2020-10-01,428.4341430664063,460.96818976560604,423.68041181949894,440.4183044433594,3479367.0,[],[],['shooting_star']
2020-11-01,445.41170585718044,476.11111803987393,441.4169535887308,464.3866271972656,4104192.0,[],[],[]
2020-12-01,464.3866609613947,491.35102329371165,463.3879799700798,488.35498046875,5474664.0,[],[],[]
2021-01-01,492.34969410469864,539.2877613414418,487.3562894991743,499.3404846191406,5673572.0,[],[],['shooting_star']
2021-02-01,509.32735814194734,550.2732589324611,501.33790938677953,505.33251953125,4293828.0,[],[],['shooting_star']
2021-03-01,505.33254050472067,522.4649545265505,484.36025670213445,503.335205078125,5796362.0,[],[],[]
2021-04-01,499.34045458121005,519.3864143037226,492.77583284303546,503.4052734375,4394612.0,[],[],[]
2021-05-01,509.39820373535156,509.39820373535156,471.44304400518627,493.4170837402344,3152808.0,[],[],[]
2021-06-01,493.41708364840616,503.40529386360805,482.4300939841349,501.40765380859375,2702983.0,[],[],[]
2021-07-01,503.4052529910269,505.40294432616207,469.4454040527344,481.4312744140625,2769209.0,[],[],[]
2021-08-01,487.42418391530106,505.40293391862235,482.5549162493541,501.40765380859375,3124981.0,[],[],[]
2021-09-01,497.4124033770224,517.3887532552083,484.5525663259078,497.4123840332031,2300474.0,[],[],[]
2021-10-01,488.4229533706324,501.4076852546986,480.4324035644531,489.42181396484375,2780789.0,[],[],[]
2021-11-01,493.41708361816404,527.3769941257157,487.2743466694336,501.40765380859375,2128483.0,[],[],[]
2021-12-01,507.40055338541663,523.3816731770833,485.8340419368134,505.4028930664063,4613689.0,[],[],[]
2022-01-01,505.402964073842,510.1293753612545,466.4489339192708,489.42181396484375,2188638.0,[],[],[]
2022-02-01,485.42653385084503,499.0564379309974,456.4607542618462,468.4465942382813,1981102.0,[],[],[]
2022-03-01,469.4454040527344,481.43128501221724,409.51620476009197,441.4784240722656,3778459.0,[],[],[]
2022-04-01,446.4725642930593,468.9460258735405,420.5854127991874,434.0721130371094,3996934.0,[],[],[]
2022-05-01,433.0730972111365,438.0681817241918,396.69891092203324,422.5834045410156,4406494.0,['hammer'],['hammer'],[]
2022-06-01,424.58146723859784,432.5735795506221,394.6110229492188,403.1026611328125,2379040.0,[],[],[]
2022-07-01,402.6031430578292,420.5853772530189,391.1144132168043,411.5942687988281,2126331.0,[],[],[]
2022-08-01,409.0967225680386,433.0731138216032,393.61198466532943,427.0789794921875,3592428.0,[],[],[]
2022-09-01,423.08296503726905,428.5775196800095,390.6149561129623,397.6080627441406,3019645.0,[],[],[]
2022-10-01,390.6149574299499,408.5971984863281,366.1390531396353,371.6336364746094,3680213.0,[],[],[]
2022-11-01,380.1253113981965,427.57850368527596,377.23315358767286,419.5863952636719,2757486.0,[],[],[]
2022-12-01,421.5844481839201,427.0790118091511,398.172527247376,409.09674072265625,2424289.0,[],[],[]
2023-01-01,409.59623836776586,445.5607354915438,404.02872852281246,439.5666809082031,3155423.0,[],[],[]
2023-02-01,443.56278281908357,456.549948616915,421.584414056769,425.5804748535156,3350335.0,[],[],[]
2023-03-01,431.0750329505464,447.4489354612998,410.5952355086155,425.3307495117188,4755755.0,[],[],[]
2023-04-01,431.5745743834163,434.8213738434767,399.70908082561726,407.7032470703125,2720042.0,[],[],[]
2023-05-01,404.70544411318144,417.85588145063065,401.7075912327442,406.2043151855469,2740810.0,[],[],[]
2023-06-01,403.70615641276044,422.192680139861,398.7097727966309,407.7032470703125,2470474.0,[],[],[]
2023-07-01,409.7017773964422,427.6886540406139,396.71326045723015,422.6922912597656,2100664.0,[],[],[]
2023-08-01,420.6937715062556,424.69086197187323,381.72214788320116,400.7083435058594,2799202.0,[],[],[]
2023-09-01,391.7148498080801,414.6981301665595,390.7155873441579,407.7032470703125,2573074.0,[],[],[]
2023-10-01,407.70326221772353,411.70035302377966,386.3588026521732,389.7163391113281,4514798.0,[],[],[]
2023-11-01,390.71561681047274,419.32277519823646,389.43653402421813,411.7003173828125,2775731.0,[],[],[]
2023-12-01,409.7017822265625,442.6777493563565,406.73393155492477,439.679931640625,1715388.0,[],[],[]
2024-01-01,437.68141163793103,441.6785021551724,403.70613116889973,421.6930847167969,3460816.0,[],[],[]
2024-02-01,418.6952159336635,438.6806945095987,415.7573372803179,429.6872253417969,3981415.0,[],[],[]
2024-03-01,428.68797302246094,455.66830403645844,426.68942769368493,449.6726684570313,4032077.0,[],[],[]
2024-04-01,453.6697695524796,463.6624954828607,423.79898499105576,437.7923278808594,3858838.0,[],[],[]
2024-05-01,432.79469856715093,458.78235817795814,432.67874455621757,435.7932739257813,3312608.0,[],[],[]
2024-06-01,434.79372922615084,464.779541015625,433.79420789930555,460.7814025878906,2449240.0,[],[],[]
2024-07-01,461.7809284069533,471.77620565480197,444.78898268479566,453.7847290039063,2865965.0,[],[],[]
2024-08-01,454.7842593796909,468.777644594254,419.8088571129224,460.7814025878906,2092384.0,[],[],[]
2024-09-01,459.7818908691406,483.638587008848,442.789938041142,470.7766723632813,2775326.0,[],[],[]
2024-10-01,471.7761909772163,493.76573994120616,470.4458401478435,474.7747802734375,5276614.0,[],[],['shooting_star']
2024-11-01,477.7733555606253,486.7690784023397,466.77854577150487,472.7757263183594,2342046.0,[],[],[]
2024-12-01,473.77522632910774,491.76673671177457,467.938008617669,482.7709655761719,2446273.0,[],[],[]
2025-01-01,482.7709938731362,498.9933065892674,473.77526106804675,491.7667236328125,2319638.0,[],[],[]
2025-02-01,487.7686298848178,499.7629305211509,475.77431059580505,478.77288818359375,3226292.0,[],[],[]
2025-03-01,479.7724260602679,488.76813279995315,452.78521728515625,452.78521728515625,4091073.0,[],[],[]
2025-04-01,454.7842593796909,460.7813955453726,383.8179152658924,427.919189453125,3030333.0,[],[],[]
2025-05-01,431.91842462814645,477.9097345405727,423.5999883865465,459.91314697265625,2881016.0,[],[],[]
2025-06-01,461.9127750686348,475.9101239604335,452.4745455816232,461.9127502441406,3321708.0,[],[],[]
2025-07-01,461.9127750686348,509.90369018554696,457.9135282459177,499.9055786132813,3176703.0,[],[],[]
2025-08-01,493.9067325862862,509.9037038392464,488.6077265490976,505.9044494628906,3007752.0,[],[],[]
2025-09-01,501.90522378588486,535.8988037109375,497.87497533646876,535.8988037109375,3673133.0,[],[],[]
2025-10-01,535.8987736356431,577.8908847741914,529.8999325259701,571.8919677734375,5804226.0,[],[],[]
2025-11-01,577.8908461726917,581.8900907828832,542.2975893720877,565.8931274414062,3099726.0,[],[],[]
2025-12-01,559.8942375861877,569.8923878003192,545.6369130123203,559.894287109375,3519491.0,[],[],[]
2026-01-01,567.8927725808662,595.8874280774916,559.0144440713028,585.8893432617188,3422433.0,[],[],[]
2026-02-01,581.8900723843961,651.2749930477794,581.8900723843961,647.8776245117188,2390917.0,[],[],[]
2026-03-01,653.8764763808832,657.8757208847418,553.8953707549072,559.894287109375,4372518.0,[],[],[]
2026-04-01,575.891220301798,634.0,559.8942565917969,626.0,4249667.0,[],[],[]
2026-05-01,627.0,717.0,597.0,708.0,2996517.0,[],[],[]
2026-06-01,717.0,738.0,657.0070190429688,702.0,3350444.0,[],[],[]
2026-07-01,710.0,710.0,641.0,690.0,4638535.0,[],[],[]
2026-08-01,694.0,716.0,683.9910278320312,712.0,2538528.0,[],[],[]
2026-09-01,710.0,746.0,680.0,726.0040283203125,3497001.0,[],[],[]
