Date,Open,High,Low,Close,Volume,signal,bull_patterns,bear_patterns
2024-10-04,485.7695617675781,488.76813930935333,478.33308702372705,485.7695617675781,242281.0,[],[],[]
2024-10-07,472.7756983647581,493.76573994120616,472.7756983647581,487.7685852050781,173351.0,[],[],[]
2024-10-08,480.77192573547364,486.58017498826376,477.773348236084,479.77239990234375,169596.0,[],[],[]
2024-10-09,473.7752449035645,486.76908073425295,473.7752449035645,479.77239990234375,153403.0,[],[],[]
2024-10-10,477.773350505908,481.7714538574219,471.7761954786372,481.7714538574219,410015.0,[],[],[]
2024-10-11,489.7676462366961,489.7676462366961,479.7723881502329,482.7709655761719,118104.0,[],[],[]
2024-10-14,470.7766718588585,484.77003365508784,470.7766718588585,483.7705078125,265435.0,[],[],[]
2024-10-15,482.77097969530035,484.06037656703376,475.77429883015105,481.7714538574219,191909.0,[],[],[]
2024-10-16,480.22220100995344,486.3192842185258,479.7724021816649,481.7714538574219,138865.0,[],[],[]
2024-10-17,479.7724021816649,486.0694027590562,477.773350505908,481.7714538574219,192640.0,[],[],[]
2024-10-18,481.7714420908505,487.76859697164946,480.77191627738404,484.77001953125,162985.0,[],[],[]
2024-10-21,484.77001953125,489.76764859858247,479.77239046391753,484.77001953125,176989.0,[],[],[]
2024-10-22,484.7700433591711,484.7700433591711,477.77336232099753,478.77288818359375,156657.0,[],[],[]
2024-10-23,477.7733459472656,482.77097508897344,477.7733459472656,477.7733459472656,239680.0,[],[],[]
2024-10-24,476.77383645840126,484.270280427873,473.7152897591056,478.77288818359375,889439.0,[],[],[]
2024-10-25,480.77192573547364,482.77097740173343,474.476907889999,479.77239990234375,221449.0,[],[],[]
2024-10-28,476.77383645840126,485.76956922176737,472.77573300801635,478.77288818359375,156790.0,[],[],[]
2024-10-29,485.7695525739981,485.7695525739981,473.9671376835239,477.7733459472656,296612.0,[],[],[]
2024-10-30,476.77382971217213,480.9118813662603,471.4963344524636,472.7757263183594,162500.0,[],[],[]
2024-10-31,474.7747802734375,484.7700388055099,470.4458401478435,474.7747802734375,159706.0,[],[],[]
2024-11-01,477.7733555606253,484.77003649979764,471.9361282660317,472.7757263183594,255658.0,[],[],[]
2024-11-04,475.7743225097656,481.8514264851609,471.7762189592634,475.7743225097656,59338.0,[],[],[]
2024-11-05,474.77476846224096,479.6124698110412,472.63479244865664,477.7733459472656,85135.0,[],[],[]
2024-11-06,478.772855298824,483.7704842685404,466.77854577150487,476.7738037109375,118879.0,[],[],[]
2024-11-07,476.7738224029541,479.77239990234375,473.1055491740001,479.77239990234375,56494.0,[],[],[]
2024-11-08,476.77382466802953,481.7714538574219,474.65483477222443,481.7714538574219,181893.0,[],[],[]
2024-11-11,478.772864650451,484.77001953125,474.37495717181986,484.77001953125,113550.0,[],[],[]
2024-11-12,472.7757190704346,479.77239990234375,471.9761106051738,479.77239990234375,32204.0,[],[],[]
2024-11-13,477.7733459472656,479.7723976039488,473.46737476935317,477.7733459472656,88458.0,[],[],[]
2024-11-14,468.7775973593914,478.772855298824,468.7775973593914,476.7738037109375,149927.0,[],[],[]
2024-11-15,474.77476846224096,479.6124698110412,470.7766651488747,477.7733459472656,118280.0,[],[],[]
2024-11-18,479.7723976039488,484.77002674565654,475.32449546658586,477.7733459472656,62045.0,[],[],[]
2024-11-19,486.7690784023397,486.7690784023397,475.5074226025893,477.7733459472656,89954.0,[],[],[]
2024-11-20,471.7761840820313,481.7714422193625,471.7761840820313,471.7761840820313,179859.0,[],['inverted_hammer'],[]
2024-11-21,473.7752588706126,478.77288818359375,469.7771554202277,478.77288818359375,147214.0,[],[],[]
2024-11-22,471.77620714542013,480.7719399087862,471.77620714542013,478.77288818359375,55054.0,[],[],[]
2024-11-25,470.77665587241603,484.7700171934645,470.77665587241603,482.7709655761719,101830.0,[],[],[]
2024-11-26,475.7743128025111,484.77004560760054,475.7743128025111,480.7719421386719,132666.0,[],[],[]
2024-11-27,480.7719519478934,484.1453518186297,474.77479662214006,475.7743225097656,39766.0,[],[],[]
2024-11-28,471.7762027138158,482.5610952107922,471.7762027138158,474.7747802734375,103379.0,[],[],[]
2024-11-29,471.77620046990614,479.2726443333051,471.77620046990614,472.7757263183594,170463.0,[],[],[]
2024-12-02,473.77522632910774,480.77190688671055,473.5253448806219,476.7738037109375,41719.0,[],[],[]
2024-12-03,480.7719139588792,484.45016161395205,470.77665587241603,482.7709655761719,75959.0,[],[],[]
2024-12-04,483.7705263611718,487.65869667940996,480.2122166653756,486.7691040039063,66371.0,[],[],[]
2024-12-05,484.77001953125,489.2179216024188,484.77001953125,484.77001953125,48438.0,[],[],[]
2024-12-06,483.7705078125,488.51425965764554,483.7705078125,483.7705078125,85061.0,[],[],[]
2024-12-09,484.77002414945207,489.82563967154516,482.7709725034749,488.7681274414063,207344.0,[],[],[]
2024-12-10,486.7690784023397,491.0170631727913,475.77429429058253,477.7733459472656,149334.0,[],[],[]
2024-12-11,491.76673671177457,491.76673671177457,474.77479662214006,475.7743225097656,131967.0,[],[],[]
2024-12-12,476.773810724294,482.7709655761719,472.81569706292447,482.7709655761719,321652.0,[],[],[]
2024-12-13,483.7705078125,484.55513925930444,477.77335275697317,483.7705078125,180836.0,[],[],[]
2024-12-16,479.77241627143974,484.3762199706427,477.7733645369754,480.7719421386719,92080.0,[],[],[]
2024-12-17,479.7724260602679,484.23030297820725,475.7743225097656,475.7743225097656,133249.0,[],[],[]
2024-12-18,477.773348236084,488.76813240051274,477.773348236084,479.77239990234375,268154.0,[],[],[]
2024-12-19,473.77523570949757,474.77476152323067,467.938008617669,471.7761840820313,86661.0,[],[],[]
2024-12-20,476.773831979852,476.773831979852,468.00699462576915,474.7747802734375,200309.0,[],[],[]
2024-12-23,474.77477073669434,479.77239990234375,474.77477073669434,479.77239990234375,115411.0,[],[],[]
2024-12-24,476.7738224029541,481.671492884669,476.17410080245463,479.77239990234375,104463.0,[],[],[]
2024-12-27,480.7719234322903,480.7719234322903,475.41447963387117,477.7733459472656,30700.0,[],[],[]
2024-12-30,479.7723976039488,483.6505626984112,475.77429429058253,477.7733459472656,42065.0,[],[],[]
2024-12-31,479.7723881502329,482.7709655761719,479.27262524590975,482.7709655761719,64500.0,[],[],[]
2025-01-02,482.7709938731362,487.718659117179,476.59893384422116,480.7719421386719,47943.0,[],[],[]
2025-01-03,482.7709819699122,483.7705078125,480.2521878277098,483.7705078125,65543.0,[],[],[]
2025-01-06,482.770984225803,488.76813930935333,481.7714583785446,485.7695617675781,162076.0,[],[],[]
2025-01-07,485.76955720893574,487.7686088846927,481.6745149806892,481.7714538574219,57561.0,[],[],[]
2025-01-08,481.7714583785446,487.7686134620949,481.7714583785446,485.7695617675781,58855.0,[],[],[]
2025-01-09,483.7705263611718,488.0484959113487,479.67246414881276,486.7691040039063,70884.0,[],[],[]
2025-01-10,483.77051007306136,487.7686134620949,480.77193253128615,485.7695617675781,132804.0,[],[],[]
2025-01-13,478.7728740692139,485.76955490112306,475.77429656982423,479.77239990234375,129635.0,[],[],[]
2025-01-14,482.7709938731362,487.968540583987,480.2521996688303,480.7719421386719,89282.0,[],[],[]
2025-01-15,482.77097969530035,484.00040745700966,479.6924535360021,481.7714538574219,113109.0,[],[],[]
2025-01-16,489.7676651566117,493.76576854564524,483.77051007306136,485.7695617675781,158965.0,[],[],[]
2025-01-17,489.76767191072787,494.76530121593936,485.90851012601445,491.7667236328125,130706.0,[],[],[]
2025-01-20,493.7657541199658,493.7657541199658,489.76765084773933,493.2659912109375,60660.0,[],[],['hanging_man']
2025-01-21,486.7690803574259,497.7638645133431,486.7690803574259,492.7662353515625,117907.0,[],[],[]
2025-01-22,492.7662539328299,495.7648315429688,485.76957284250574,495.7648315429688,198610.0,[],[],[]
2025-01-23,495.76481284863087,497.7638645133431,491.5198173656697,492.7662353515625,194094.0,[],[],[]
2025-01-24,492.7662376326744,497.76386681759,492.7662376326744,494.7652893066406,130437.0,[],[],[]
2025-01-27,492.76625254545786,498.0137633484267,473.77526106804675,480.7719421386719,71756.0,[],[],[]
2025-01-28,481.7714561273244,483.7705078125,476.7738269143854,483.7705078125,112984.0,[],[],[]
2025-01-29,482.7709886823382,489.7676696777344,479.2726481846401,489.7676696777344,91963.0,[],[],[]
2025-01-30,489.7676696777344,492.79424910071333,488.1884322458555,489.7676696777344,77307.0,[],[],[]
2025-01-31,495.7648270769817,498.9933065892674,486.76909432760095,491.7667236328125,46557.0,[],[],[]
2025-02-03,487.7686298848178,491.57682105084194,484.7200881492814,486.7691040039063,78950.0,[],[],[]
2025-02-04,484.77001953125,490.767174412049,484.77001953125,484.77001953125,70316.0,[],[],[]
2025-02-05,477.77334578979617,489.76765572594167,477.77334578979617,484.270263671875,92733.0,[],[],[]
2025-02-06,486.7691040039063,489.9675990240669,481.231722082786,486.7691040039063,83697.0,[],[],[]
2025-02-07,489.76767191072787,492.7662494938548,482.77099088343175,491.7667236328125,103589.0,[],[],[]
2025-02-10,491.7667072241758,494.76528470725003,485.1228558751878,490.7671813964844,99742.0,[],[],[]
2025-02-11,491.76670491037197,491.76670491037197,483.7704983264635,488.7681274414063,90242.0,[],[],[]
2025-02-12,483.7705078125,492.896183635824,480.7719302847366,483.7705078125,101351.0,[],[],[]
2025-02-13,486.7690876148365,493.33597975207016,484.77003592031974,485.7695617675781,375769.0,[],[],[]
2025-02-14,486.7690853402635,487.76861118285126,483.7705078125,483.7705078125,122574.0,[],[],[]
2025-02-17,488.7681274414063,497.76385984830335,486.5691584295886,488.7681274414063,85391.0,[],[],[]
2025-02-18,499.7629114942805,499.7629114942805,487.76860161841773,488.7681274414063,114949.0,[],[],[]
2025-02-19,485.76954064002405,498.7633760892428,485.76954064002405,493.7657470703125,76776.0,[],[],[]
2025-02-20,493.7657634696575,499.4960468012557,489.76766012172504,494.7652893066406,546206.0,[],[],[]
2025-02-21,495.76483374905877,498.9633287486834,494.4054932012391,497.7638854980469,152074.0,[],[],[]
2025-02-24,495.7648270769817,499.7629305211509,491.7667236328125,491.7667236328125,121439.0,[],[],[]
2025-02-25,499.7629282425861,499.7629282425861,485.8995094936341,489.7676696777344,143674.0,[],[],[]
2025-02-26,489.7676696777344,497.76387652961574,488.0184994288853,489.7676696777344,191395.0,[],[],[]
2025-02-27,487.76860656738285,495.7648132324219,479.77239990234375,479.77239990234375,361639.0,[],[],[]
2025-02-28,476.77383645840126,493.7657761225372,475.77431059580505,478.77288818359375,213786.0,['inverted_hammer'],['inverted_hammer'],[]
2025-03-03,479.7724260602679,484.77005549839566,471.7762189592634,475.7743225097656,126393.0,[],[],[]
2025-03-04,473.77526413937835,487.76862637134315,469.7771606445313,469.7771606445313,330654.0,[],[],[]
2025-03-05,473.7752380371094,486.76907367947734,473.28548014696827,473.7752380371094,156223.0,[],[],[]
2025-03-06,475.77429883015105,487.7686088846927,473.7752471543941,481.7714538574219,151906.0,[],[],[]
2025-03-07,470.77667462145297,484.01038709397864,470.77667462145297,472.7757263183594,74663.0,[],[],[]
2025-03-10,471.77619362285867,488.76813279995315,466.778564453125,466.778564453125,288475.0,[],[],[]
2025-03-11,469.77712541179085,469.77712541179085,464.7794964180484,465.7790222167969,117768.0,[],[],[]
2025-03-12,463.78001512096773,468.777644594254,462.78048922631046,464.779541015625,173635.0,[],[],[]
2025-03-13,463.78001512096773,472.7757481728831,459.7819115423387,464.779541015625,189074.0,[],[],[]
2025-03-14,461.78094706042054,469.7771539359257,458.78236948210616,463.7799987792969,254991.0,[],[],[]
2025-03-17,463.7799706192999,468.9375274012149,461.7809190218029,465.7790222167969,142829.0,[],[],[]
2025-03-18,465.77903861917827,471.77619362285867,463.7799869512848,466.778564453125,293576.0,[],[],[]
2025-03-19,469.7771419549652,472.7757194568054,465.77903861917827,466.778564453125,438633.0,[],[],[]
2025-03-20,468.77761612101847,474.103092692585,461.78093528339133,466.778564453125,70541.0,[],[],[]
2025-03-21,459.78189534154427,473.77525737367824,459.78189534154427,463.7799987792969,187200.0,[],[],[]
2025-03-24,468.77762067596376,473.7752498942576,460.78141392669363,470.7766723632813,199269.0,[],[],[]
2025-03-25,466.7785689886462,472.5358476091153,465.37923890814557,470.7766723632813,213754.0,[],[],[]
2025-03-26,479.7723858173077,479.7723858173077,466.77855036808893,467.778076171875,137314.0,[],[],[]
2025-03-27,469.77714651962253,472.77572405059885,465.7790431449875,470.7766723632813,123593.0,[],[],[]
2025-03-28,466.77859280493954,468.777644594254,460.781437436996,464.779541015625,157846.0,[],[],[]
2025-03-31,461.78095007890107,461.78095007890107,452.78521728515625,452.78521728515625,262736.0,[],[],[]
2025-04-01,454.7842593796909,460.7014658022184,451.78568184531935,457.7828369140625,136139.0,[],[],[]
2025-04-02,453.7847149188702,460.7813955453726,452.78518911508417,454.78424072265625,144714.0,[],[],[]
2025-04-03,443.78945451216265,447.7875577059659,435.6333203364312,439.7913513183594,207642.0,[],[],[]
2025-04-04,429.79610515090656,442.789940888027,414.8032177619215,423.7989501953125,319010.0,[],[],[]
2025-04-07,400.8098542229762,418.601401635621,383.8179152658924,408.8060607910156,234747.0,['rebound'],['rebound'],[]
2025-04-08,416.8022743317018,426.79753270896083,405.8074901167169,414.80322265625,248425.0,[],[],[]
2025-04-09,397.811269906851,418.8013117863582,393.8131666917068,402.8088989257813,291193.0,[],[],[]
2025-04-10,405.9233475870161,415.9214595965485,401.9241027832031,401.9241027832031,137525.0,[],[],[]
2025-04-11,408.9227676203222,418.9208792980807,401.92408944589124,404.9235229492188,86384.0,[],[],[]
2025-04-14,414.921630859375,419.8206994346287,405.92333043109943,414.921630859375,110312.0,[],[],[]
2025-04-15,413.92181396484375,421.9203031235847,399.9244579370471,413.92181396484375,75507.0,[],[],[]
2025-04-16,403.92372116533295,413.92183307536595,399.92447640131974,411.9222106933594,81212.0,[],[],[]
2025-04-17,402.9238931147568,413.92181575560625,399.92445966725245,408.9227600097656,60208.0,[],[],[]
2025-04-22,404.9235210883908,412.9220103938405,402.9238987620284,409.9225769042969,68610.0,[],[],[]
2025-04-23,413.92181788853236,424.7497592646207,402.10404272163294,419.9206848144531,236904.0,[],[],[]
2025-04-24,419.9206848144531,424.91974058605376,414.9216290428525,419.9206848144531,194953.0,[],[],[]
2025-04-25,420.9205017089844,426.9193687167134,414.90164946214986,420.9205017089844,39492.0,[],[],[]
2025-04-28,424.9197387695313,427.9191722196692,418.92087186925556,424.9197387695313,61539.0,[],[],[]
2025-04-29,422.9201354980469,428.91900266823194,418.72091627419087,422.9201354980469,161793.0,[],[],[]
2025-04-30,425.9195670725029,429.8918088764892,419.92069993063666,427.919189453125,134024.0,[],[],[]
2025-05-01,431.91842462814645,437.9172916368707,423.5999883865465,436.91748046875,127608.0,[],[],[]
2025-05-02,437.91730669000174,449.9150411198648,424.2768770843703,444.9159851074219,227113.0,[],[],[]
2025-05-06,445.9157697250468,451.9146365823344,441.9165251535217,450.9148254394531,121371.0,[],[],[]
2025-05-07,444.9159736719411,453.91427426305904,429.91880602007797,442.9163513183594,197815.0,[],[],[]
2025-05-08,441.9165438713635,454.9140892793448,440.9837061221565,448.9152221679688,156191.0,[],[],[]
2025-05-09,449.9150142965719,453.11442215851787,445.9157697250468,450.9148254394531,87694.0,[],[],[]
2025-05-12,461.9127484797411,471.91085991869653,457.9135039041589,466.9118041992188,246898.0,[],[],[]
2025-05-13,469.91126261043956,473.3806086846531,461.7127985899565,465.9120178222656,153748.0,[],[],[]
2025-05-14,469.9112548828125,473.9104996052194,455.99386982363745,469.9112548828125,90297.0,[],[],[]
2025-05-15,468.9114550574351,471.99086014306073,464.87220924668077,471.910888671875,71009.0,[],[],[]
2025-05-16,467.91162109375,470.9110545622997,462.91256531283386,467.91162109375,78182.0,[],[],[]
2025-05-19,458.91332817077637,474.910306930542,458.91332817077637,463.9123840332031,256880.0,[],[],[]
2025-05-20,468.9114398956299,476.9099292755127,462.31268005486345,463.9123840332031,106702.0,[],[],[]
2025-05-21,463.9123782987986,477.9097345405727,462.3626832053283,462.9125671386719,82392.0,[],[],[]
2025-05-22,464.9122086729766,472.91069828455466,456.91371906139847,460.9129638671875,101219.0,[],[],[]
2025-05-23,458.9133128116006,464.62222587211437,454.5741361296581,455.9138793945313,57822.0,[],[],[]
2025-05-27,454.914096658504,464.1623502718911,453.9142854570567,460.9129638671875,329561.0,[],[],[]
2025-05-28,461.91276737336193,468.78146533098436,460.3130633753334,464.9122009277344,168818.0,[],[],[]
2025-05-29,462.91258627008204,468.9114534787656,460.9129638671875,460.9129638671875,105921.0,[],[],[]
2025-05-30,455.91390221637226,463.91239172894024,455.91390221637226,459.91314697265625,113775.0,[],[],[]
2025-06-02,461.9127750686348,463.9123974715293,456.8977308695785,460.9129638671875,88616.0,[],[],[]
2025-06-03,463.9123782987986,464.9121894589253,456.91370017791155,462.9125671386719,76675.0,[],[],[]
2025-06-04,464.9121894589253,466.9118117791788,456.91370017791155,462.9125671386719,350126.0,[],[],[]
2025-06-05,464.9121876252003,468.9114322499332,463.9123764690171,467.91162109375,72438.0,[],[],[]
2025-06-06,469.91125106811523,470.29118419555016,461.9127616882324,463.9123840332031,85890.0,[],[],[]
2025-06-09,471.9108657184829,473.91048803084936,462.91256531283386,467.91162109375,97237.0,[],[],[]
2025-06-10,465.9120121125252,475.9101239604335,462.91257855815275,464.9122009277344,246622.0,[],[],[]
2025-06-11,461.9127598093517,470.91106032511834,461.9127598093517,468.9114379882813,395701.0,[],[],[]
2025-06-12,465.9120121125252,475.9101239604335,464.9122009277344,464.9122009277344,154541.0,[],[],[]
2025-06-13,459.9131412547658,463.912385961329,456.6137765765775,458.913330078125,64162.0,[],[],[]
2025-06-16,459.91314697265625,468.9114476742952,455.91390221637226,459.91314697265625,103550.0,[],[],[]
2025-06-17,457.91351318359375,466.9118136610006,457.91351318359375,457.91351318359375,93461.0,[],[],[]
2025-06-18,460.91293909642604,466.9118059827136,456.7137200712989,461.9127502441406,375498.0,[],[],[]
2025-06-19,462.9125671386719,468.9114340994322,453.9142666975314,462.9125671386719,375682.0,[],[],[]
2025-06-20,457.9135189014842,463.18953053573705,454.91408537156184,458.913330078125,56907.0,[],[],[]
2025-06-23,463.91238793192457,463.91238793192457,452.4745455816232,453.9142761230469,91770.0,[],[],[]
2025-06-24,458.91333578358524,463.91239172894024,455.91390221637226,459.91314697265625,179140.0,[],[],[]
2025-06-25,460.9129524314066,463.912385961329,455.9138965482026,458.913330078125,147833.0,[],[],[]
2025-06-26,459.9131412547658,463.912385961329,456.9137077248434,458.913330078125,104835.0,[],[],[]
2025-06-27,460.91295051574707,464.9121952056885,457.79354453948326,463.9123840332031,83232.0,[],[],[]
2025-06-30,463.9123725395698,468.91142827814275,457.9135056532823,461.9127502441406,77792.0,[],[],[]
2025-07-01,461.9127750686348,468.9114534787656,459.91315266574026,460.9129638671875,110967.0,[],[],[]
2025-07-02,468.9114514133961,468.9114514133961,457.9135282459177,465.9120178222656,38644.0,[],[],[]
2025-07-03,466.9118041992188,471.3909691081241,461.7127740462362,466.9118041992188,180158.0,[],[],[]
2025-07-04,469.91124525955894,473.9104899000658,462.51264877698424,462.9125671386719,53747.0,[],[],[]
2025-07-07,462.9125671386719,473.9104899000658,461.91275597854514,462.9125671386719,112679.0,[],[],[]
2025-07-08,467.9116438526218,473.91051108150157,461.91277662374205,471.910888671875,453898.0,[],[],[]
2025-07-09,470.9110641318874,475.4901858950622,468.0615961764969,474.9103088378906,183833.0,[],[],[]
2025-07-10,471.91086777466074,479.90935705897704,471.91086777466074,478.9095458984375,646417.0,[],[],[]
2025-07-11,477.90973473789796,479.90935705897704,475.2202402751014,478.9095458984375,31452.0,[],[],[]
2025-07-14,479.9093685031185,482.13895842854294,472.910690212448,480.9091796875,194941.0,[],[],[]
2025-07-15,483.9086055794942,487.9078502537049,480.4992458333117,484.9084167480469,68557.0,[],[],[]
2025-07-16,485.9082336425781,487.90785600324716,478.90955538023644,485.9082336425781,69938.0,[],[],[]
2025-07-17,486.9080257728451,490.9072703377145,482.66383236026786,487.9078369140625,43716.0,[],[],[]
2025-07-18,489.907470703125,490.90728186782525,477.9097367267219,489.907470703125,34793.0,[],[],[]
2025-07-21,489.9074764212863,492.9069099503962,485.9082317158064,490.90728759765625,74131.0,[],[],[]
2025-07-22,492.90691568017974,492.90691568017974,490.90729330419526,491.9071044921875,35473.0,[],[],[]
2025-07-23,493.9067059901052,499.9055728644789,490.90727255291836,498.90576171875,118522.0,[],[],[]
2025-07-24,501.9052085876465,502.5000974557479,493.9067192077637,495.9063415527344,74851.0,[],[],['dark_cloud_cover']
2025-07-25,494.9065341417533,501.90521240234375,492.9069117815846,501.90521240234375,45719.0,[],[],[]
2025-07-28,505.90446859692776,507.46417163228915,501.4053181845045,503.9048461914063,179304.0,[],[],[]
2025-07-29,503.9048461914063,503.9048461914063,499.9056013803634,503.9048461914063,287017.0,[],[],[]
2025-07-30,501.9052009277345,502.91901700809234,495.90633398437507,499.9055786132813,59419.0,[],[],[]
2025-07-31,498.9057674560548,509.90369018554696,498.9057674560548,499.9055786132813,78527.0,[],[],[]
2025-08-01,493.9067325862862,501.90522218282524,489.9074877880167,492.9069213867188,114226.0,[],[],[]
2025-08-04,494.9065417554005,505.9044649055205,491.9071081690042,497.9059753417969,60718.0,[],[],[]
2025-08-05,496.9061469800545,500.73342703321214,490.9072800145005,494.9065246582031,328665.0,[],[],[]
2025-08-06,495.9063472632671,498.79880638865444,494.1027022889109,496.9061584472656,158257.0,[],[],[]
2025-08-07,498.90576171875,503.9048174473948,497.1960932028616,498.90576171875,333878.0,[],[],[]
2025-08-08,490.90727431571435,500.2535008844309,490.90727431571435,493.9067077636719,48017.0,[],[],[]
2025-08-11,495.9063358191288,497.696006340494,493.90671349727745,494.9065246582031,70332.0,[],[],[]
2025-08-12,495.9063358191288,501.9052027846828,492.90690233635183,494.9065246582031,168557.0,[],[],[]
2025-08-13,499.9055786132813,505.9044455566407,498.9057674560548,499.9055786132813,106948.0,[],[],[]
2025-08-14,498.9057674560548,509.90369018554696,495.90633398437507,499.9055786132813,66314.0,[],[],[]
2025-08-15,499.9055977327278,507.90408729645145,497.1061385901511,497.9059753417969,51868.0,[],[],[]
2025-08-18,507.90407948284985,507.90407948284985,496.906156501922,501.90521240234375,104008.0,[],[],[]
2025-08-19,499.9055919992612,509.9037038392464,495.9063472632671,496.9061584472656,66493.0,[],[],[]
2025-08-20,494.906530380249,500.90539741516113,492.40700244903564,495.9063415527344,89012.0,[],[],[]
2025-08-21,495.9063358191288,498.9057693019058,493.90671349727745,494.9065246582031,216387.0,[],[],[]
2025-08-22,496.90616414633143,499.9555760877746,494.0566961368916,497.9059753417969,122959.0,[],[],[]
2025-08-26,494.9065360792686,500.90540318325975,492.90691371127156,496.9061584472656,145424.0,[],[],[]
2025-08-27,496.9061469800545,501.9052027846828,488.6077265490976,494.9065246582031,101278.0,[],[],[]
2025-08-28,501.90522378588486,503.9048461914063,491.90711175827755,503.9048461914063,454341.0,[],[],[]
2025-08-29,501.90520480310494,507.30417899145255,495.9063378134264,505.9044494628906,200070.0,[],[],[]
2025-09-01,501.90522378588486,505.90446859692776,501.90522378588486,503.9048461914063,127270.0,[],[],[]
2025-09-02,501.9051951559369,505.9044397388527,497.905950573021,498.90576171875,49574.0,[],[],[]
2025-09-03,503.9048174473948,506.3043580947813,498.90576171875,498.90576171875,282985.0,[],[],[]
2025-09-04,499.9055977327278,501.9052201236587,497.87497533646876,497.9059753417969,433911.0,[],[],[]
2025-09-05,499.9055728644789,503.9048174473948,498.90576171875,498.90576171875,295599.0,[],[],[]
2025-09-08,499.90559004217505,504.8806636553792,499.10474641291256,501.90521240234375,46491.0,[],[],[]
2025-09-09,503.9048271329978,507.9040717927835,501.82523333510795,505.9044494628906,73328.0,[],[],[]
2025-09-10,509.9036865234375,511.9033088235294,501.90519732306984,509.9036865234375,161622.0,[],[],[]
2025-09-11,509.903709322562,513.9029541015625,505.9044645435615,513.9029541015625,58225.0,[],[],[]
2025-09-12,515.9025384026604,519.176944233175,511.9032939189189,517.9021606445312,79923.0,[],[],[]
2025-09-15,519.9018327579942,521.9014551916788,515.902587890625,515.902587890625,226634.0,[],[],[]
2025-09-16,517.9021835619462,521.9014282226562,517.9021835619462,521.9014282226562,206681.0,[],[],[]
2025-09-17,523.9010620117188,525.9006843858093,521.9014396376283,523.9010620117188,129131.0,[],[],[]
2025-09-18,525.9006958007812,526.4835935465056,522.6613172482232,525.9006958007812,331322.0,[],[],['hanging_man']
2025-09-19,525.9006463253137,531.8995130134351,523.9010240959399,527.9002685546875,197972.0,[],[],[]
2025-09-22,531.8995630532617,533.3392936348023,525.9006958007812,525.9006958007812,135535.0,[],[],['dark_cloud_cover']
2025-09-23,527.9003028441011,533.899169921875,524.061001063928,533.899169921875,142630.0,[],[],[]
2025-09-24,531.8995246167453,532.8993357532429,527.9002800707548,529.89990234375,148086.0,[],[],[]
2025-09-25,529.8998907840613,533.8991352428089,525.4027545476812,527.9002685546875,40862.0,[],[],[]
2025-09-26,525.9006843858093,529.8999291339903,523.9010620117188,523.9010620117188,80653.0,[],[],[]
2025-09-29,525.9006691839462,531.8995361328125,525.0608009607076,531.8995361328125,148866.0,[],[],[]
2025-09-30,529.8999365052181,535.8988037109375,528.5302000418027,535.8988037109375,275833.0,[],[],[]
2025-10-01,535.8987736356431,551.895751953125,534.799005785768,551.895751953125,1732919.0,[],[],[]
2025-10-02,543.8972892342033,551.8957787817651,543.8972892342033,545.8969116210938,93552.0,[],[],[]
2025-10-03,549.8961181640625,555.8949849076705,543.8972514204545,549.8961181640625,180251.0,[],[],[]
2025-10-06,549.8961524140063,555.89501953125,545.8969076691772,555.89501953125,99962.0,[],[],[]
2025-10-07,553.8954197474889,560.6701415978904,545.8969299316406,559.894287109375,91996.0,[],[],[]
2025-10-08,559.8942375861877,563.357572629955,555.8949930320007,561.8938598632812,92955.0,[],[],[]
2025-10-09,555.895030906978,565.8931429736502,555.895030906978,557.8946533203125,429005.0,[],[],[]
2025-10-10,555.895023555546,559.8942683293269,545.8969116210938,545.8969116210938,570741.0,[],[],[]
2025-10-13,541.8976291725852,551.8957404119318,541.1587550827048,549.8961181640625,270265.0,[],[],[]
2025-10-14,543.8972933185635,546.0968901653871,535.8988037109375,535.8988037109375,328221.0,[],[],[]
2025-10-15,537.8983994374855,545.4569693009036,536.9985449917999,541.8976440429688,278398.0,[],[],[]
2025-10-16,547.8965497211896,547.8965497211896,537.8984375,537.8984375,162167.0,[],[],[]
2025-10-17,533.8991813090311,537.8984261128439,531.8995589071245,535.8988037109375,136781.0,[],[],[]
2025-10-20,529.8999325259701,545.8969116210938,529.8999325259701,545.8969116210938,101089.0,[],[],[]
2025-10-21,547.8965340079842,548.8963452014294,541.8976668473128,545.8969116210938,260286.0,[],[],[]
2025-10-22,549.8961678386605,553.8954126956689,543.8973005531478,547.8965454101562,195432.0,[],[],[]
2025-10-23,547.8965187485899,553.8953857421875,544.8970852517909,553.8953857421875,133470.0,[],[],[]
2025-10-24,553.8954084936436,557.8946533203125,551.075933568006,557.8946533203125,91790.0,[],[],[]
2025-10-27,559.8942375861877,561.8938598632812,556.194924168839,561.8938598632812,114183.0,[],[],['hanging_man']
2025-10-28,563.893505082956,565.8931274414062,560.1442131608619,565.8931274414062,141138.0,[],[],['hanging_man']
2025-10-29,567.8927459716797,575.8912353515625,564.608393120463,575.8912353515625,115204.0,[],[],[]
2025-10-30,569.8923950195312,577.8908847741914,569.8923950195312,569.8923950195312,118244.0,[],[],[]
2025-10-31,575.8912123033217,577.8908345682638,569.8923455084954,571.8919677734375,66177.0,[],[],[]
2025-11-03,577.8908461726917,581.8900907828832,573.8916015625,573.8916015625,103476.0,[],[],[]
2025-11-04,569.8923455084954,574.4074837953322,567.1978471836505,571.8919677734375,140821.0,[],[],[]
2025-11-05,569.8923569523083,573.8916015625,566.2450356158438,573.8916015625,214647.0,[],[],[]
2025-11-06,567.8927497998565,573.8916168752071,565.8931274414062,565.8931274414062,212455.0,[],[],[]
2025-11-07,559.8942375861877,565.8931044174683,559.8942375861877,561.8938598632812,233669.0,[],[],[]
2025-11-10,561.8938827245058,573.0117781555984,561.8938827245058,565.8931274414062,155648.0,[],[],[]
2025-11-11,569.8923569523083,573.8916015625,565.8931123421168,573.8916015625,143476.0,[],[],[]
2025-11-12,575.8912238675958,579.8904684777874,569.8923569523083,573.8916015625,202568.0,[],[],[]
2025-11-13,573.8916168752071,575.8912392336573,565.8931274414062,565.8931274414062,97319.0,[],[],[]
2025-11-14,565.8931501422012,569.8923950195312,555.895037948876,569.8923950195312,156321.0,[],[],[]
2025-11-17,575.8912508252641,575.8912508252641,561.8938940343722,567.8927612304688,119169.0,[],[],[]
2025-11-18,553.8954197474889,559.894287109375,551.7398208838488,559.894287109375,262218.0,[],[],[]
2025-11-19,551.8957972935268,561.893909563337,551.8957972935268,559.894287109375,111908.0,[],[],[]
2025-11-20,561.8938713344277,567.7127796023991,561.4939224613922,563.8934936523438,217732.0,[],[],[]
2025-11-21,553.8953742428102,565.8931079809216,542.2975893720877,551.895751953125,221363.0,[],[],[]
2025-11-24,555.8950080733867,559.8942527357852,552.9955312836955,553.8953857421875,97239.0,[],[],[]
2025-11-25,549.896141079789,559.8942527357852,549.896141079789,553.8953857421875,152872.0,[],[],[]
2025-11-26,559.8942375861877,565.8931044174683,557.6746861499558,561.8938598632812,78158.0,[],[],[]
2025-11-27,561.8938598632812,565.8931044174683,559.8942375861877,561.8938598632812,70918.0,[],[],[]
2025-11-28,561.8938827245058,565.8931274414062,560.094234806627,565.8931274414062,107749.0,[],[],[]
2025-12-01,559.8942375861877,565.8931044174683,558.5404893990832,561.8938598632812,318218.0,[],[],[]
2025-12-02,563.8935205603159,569.8923878003192,556.1449837086449,557.8946533203125,388639.0,[],[],[]
2025-12-03,557.8946419036646,559.8942642760791,555.4051218137895,555.89501953125,244971.0,[],[],[]
2025-12-04,551.895751953125,557.8946188221807,551.895751953125,551.895751953125,157000.0,[],[],[]
2025-12-05,553.8954084936436,561.8938981469814,551.8957860803091,557.8946533203125,126732.0,[],[],[]
2025-12-08,559.894287109375,561.893909563337,551.8957972935268,559.894287109375,99415.0,[],[],[]
2025-12-09,555.8950422014509,561.893909563337,553.8954197474889,559.894287109375,197673.0,[],[],[]
2025-12-10,557.894664655413,563.8935320172991,555.8950422014509,559.894287109375,109207.0,[],[],[]
2025-12-11,557.894664655413,567.8927769252232,555.3991641478347,559.894287109375,202195.0,[],[],[]
2025-12-12,561.8938866484937,567.8927537657374,555.89501953125,555.89501953125,119471.0,[],[],[]
2025-12-15,555.895030906978,561.8938981469814,550.456055501763,557.8946533203125,142793.0,[],[],[]
2025-12-16,549.8961563948747,555.895023555546,545.8969116210938,545.8969116210938,280040.0,[],[],[]
2025-12-17,553.8954126956689,559.8942799811816,545.896922981652,547.8965454101562,203727.0,[],[],[]
2025-12-18,547.8964959161932,552.4606361379,545.6369130123203,549.8961181640625,116023.0,[],[],[]
2025-12-19,555.89501953125,557.294779601393,546.8967188553844,555.89501953125,167318.0,[],[],[]
2025-12-22,559.894275733647,559.894275733647,551.8957860803091,557.8946533203125,145705.0,[],[],[]
2025-12-23,561.8938866484937,561.8938866484937,551.8957747864208,555.89501953125,37420.0,[],[],[]
2025-12-24,563.8934738991477,563.8934738991477,549.8961181640625,549.8961181640625,150105.0,[],[],[]
2025-12-29,559.894287109375,563.8935320172991,547.8965523856027,559.894287109375,82736.0,[],[],[]
2025-12-30,559.8942375861877,563.8934821403748,556.8548336935121,561.8938598632812,190160.0,[],[],[]
2025-12-31,561.893909563337,565.8931544712611,558.4135486192203,559.894287109375,39943.0,[],[],[]
2026-01-02,567.8927725808662,575.2914000133804,559.0144440713028,569.8923950195312,265216.0,[],[],[]
2026-01-05,573.8916130065918,579.8904800415039,568.2126928697107,575.8912353515625,216157.0,[],[],[]
2026-01-06,577.8908425945125,585.8893317653708,573.6316373472497,583.8897094726562,416083.0,[],[],[]
2026-01-07,581.8900756835938,585.8893201900102,576.7730613770059,581.8900756835938,164994.0,[],[],[]
2026-01-08,579.8905029296875,583.9307556592184,575.8912580818966,579.8905029296875,251370.0,[],[],[]
2026-01-09,579.8904534303855,581.9900323868028,578.9946265664605,581.8900756835938,52640.0,[],[],[]
2026-01-12,581.8900756835938,585.8893201900102,575.8912089239691,581.8900756835938,95141.0,[],[],[]
2026-01-13,581.8900871799417,585.8893317653708,577.8908425945125,583.8897094726562,153921.0,[],[],[]
2026-01-14,577.8908311771773,583.889697936802,577.8908311771773,581.8900756835938,327476.0,[],[],[]
2026-01-15,581.8901212013374,589.8886108398438,579.6305381146781,589.8886108398438,277568.0,[],[],[]
2026-01-16,583.8897094726562,587.8889540580853,579.890464887227,583.8897094726562,114683.0,[],[],[]
2026-01-19,577.8908539339137,587.88896559367,577.8908539339137,585.8893432617188,65296.0,[],[],[]
2026-01-20,575.8912353515625,583.8897247314453,575.8912353515625,575.8912353515625,95733.0,[],[],[]
2026-01-21,575.891220301798,585.8893317653708,575.891220301798,583.8897094726562,90379.0,[],[],[]
2026-01-22,589.8885994217022,590.6704341939263,581.8901099380181,587.8889770507812,175026.0,[],[],[]
2026-01-23,589.8885879256212,593.8878325895238,583.8897209297675,585.8893432617188,113696.0,[],[],[]
2026-01-26,583.889697936802,591.8881869496349,581.3791858671918,581.8900756835938,89084.0,[],[],[]
2026-01-27,583.8897436109639,591.2283847046921,583.8897436109639,589.8886108398438,119255.0,[],[],[]
2026-01-28,591.88818359375,595.8874280774916,587.8889391100084,591.88818359375,86323.0,[],[],[]
2026-01-29,593.8878325895238,593.8878325895238,583.1028822350598,585.8893432617188,195555.0,[],[],[]
2026-01-30,589.8885879256212,589.8885879256212,583.0898842017132,585.8893432617188,56837.0,[],[],[]
2026-02-02,581.8900723843961,591.88818359375,581.8900723843961,591.88818359375,98837.0,[],[],[]
2026-02-03,595.8874280774916,599.8866725612331,591.88818359375,591.88818359375,135405.0,[],[],[]
2026-02-04,593.8878556590969,599.8867228879767,585.8893660205905,589.8886108398438,126085.0,[],[],[]
2026-02-05,585.8893282598117,594.8816482075287,585.8893282598117,593.8878173828125,189266.0,[],[],[]
2026-02-06,585.8893282598117,597.8870619443129,585.8893282598117,593.8878173828125,70711.0,[],[],[]
2026-02-09,595.8874396635628,601.8863065058133,591.8881951020622,593.8878173828125,108844.0,[],[],[]
2026-02-10,597.8871076716932,607.8852198401163,595.8874852380087,601.8863525390625,81932.0,[],[],[]
2026-02-11,605.8855590820312,611.4844771327432,599.6667629979772,605.8855590820312,137111.0,[],[],[]
2026-02-12,609.8847921005148,615.8836589080609,603.8859252929688,603.8859252929688,147321.0,[],[],[]
2026-02-13,599.8867301053779,609.8848422738008,597.959115559625,601.8863525390625,94152.0,[],[],[]
2026-02-16,601.8863258361816,609.8848152160645,601.8863258361816,607.8851928710938,75916.0,[],[],[]
2026-02-17,599.8867301053779,609.8848422738008,599.8867301053779,601.8863525390625,212538.0,[],[],[]
2026-02-18,605.8855555150416,615.8836669921875,605.8855555150416,615.8836669921875,66323.0,[],[],[]
2026-02-19,619.8829501282935,621.2827102315849,611.8844604492188,611.8844604492188,60600.0,[],[],[]
2026-02-20,613.8840561159992,619.8829231138754,609.8848114507484,617.88330078125,98310.0,[],[],[]
2026-02-23,615.8836898311492,621.8825569398941,613.8840674615676,619.8829345703125,102116.0,[],[],[]
2026-02-24,621.8825417293865,627.8814086914062,617.88329708804,627.8814086914062,105675.0,[],[],[]
2026-02-25,627.8814086914062,636.3798035542677,627.4184834312553,627.8814086914062,80285.0,[],[],[]
2026-02-26,637.8795319087922,639.879154265873,629.3811368911985,629.8810424804688,103552.0,[],[],[]
2026-02-27,639.879135320216,651.2749930477794,629.8180474449915,647.8776245117188,295938.0,[],[],[]
2026-03-02,653.8764763808832,657.8757208847418,645.877987373166,655.8760986328125,663735.0,[],[],[]
2026-03-03,627.8814240486391,647.8776477444557,607.9652023342228,619.8829345703125,315211.0,[],[],[]
2026-03-04,607.885189118123,627.881412444377,605.8855667854975,617.88330078125,337821.0,[],[],[]
2026-03-05,625.8817821540455,631.8806490756498,605.8855590820312,605.8855590820312,191794.0,[],[],[]
2026-03-06,611.8844414650397,621.8825532536841,589.8885955300219,597.8870849609375,147153.0,[],[],[]
2026-03-09,593.8878209362291,593.8878209362291,573.3577022742518,583.8897094726562,171073.0,[],[],[]
2026-03-10,599.8867259306066,611.8844604492188,591.7712539462738,611.8844604492188,84626.0,[],[],[]
2026-03-11,623.8821833376024,623.8821833376024,607.8852042776639,609.8848266601562,47447.0,[],[],[]
2026-03-12,607.885196749582,621.8825532536841,591.8882178877508,597.8870849609375,177170.0,[],[],[]
2026-03-13,601.8863030237868,615.8836589080609,590.0835399027753,603.8859252929688,75858.0,[],[],[]
2026-03-16,593.8878139470587,613.8840366388788,593.8878139470587,603.8859252929688,113957.0,[],[],[]
2026-03-17,611.8844604492188,629.8810622271369,602.1463090287266,611.8844604492188,247362.0,[],[],[]
2026-03-18,605.8855590820312,619.8829152324412,604.3858423516301,605.8855590820312,442920.0,[],[],[]
2026-03-19,605.8855627687186,611.8844297268247,587.8889618944002,595.887451171875,115500.0,[],[],[]
2026-03-20,593.8878441635443,603.8859560181494,583.8897323089392,587.8889770507812,136990.0,[],[],[]
2026-03-23,583.8897094726562,597.0872288092984,567.8927311309396,583.8897094726562,273792.0,[],[],[]
2026-03-24,585.889347076416,596.1743919148576,575.8912353515625,575.8912353515625,74472.0,[],[],[]
2026-03-25,579.8904501425253,591.88818359375,577.6798692187042,591.88818359375,156269.0,[],[],[]
2026-03-26,589.8885800032666,589.8885800032666,571.8919792574042,573.8916015625,161190.0,[],[],[]
2026-03-27,567.8927497998565,585.8893510259082,565.8931274414062,565.8931274414062,123350.0,[],[],[]
2026-03-30,553.8953707549072,572.9287627065071,553.8953707549072,561.8938598632812,172897.0,[],[],[]
2026-03-31,555.8950422014509,573.8916442871093,555.8950422014509,559.894287109375,141931.0,[],[],[]
2026-04-01,575.891220301798,595.8874432289437,569.592422284473,583.8897094726562,134368.0,[],[],[]
2026-04-02,565.8931009786112,583.88970136309,565.8931009786112,571.8919677734375,135754.0,[],[],[]
2026-04-07,559.8942565917969,584.8895359039307,559.8942565917969,575.8912353515625,153366.0,[],[],[]
2026-04-08,599.8867091286945,617.8833104025554,580.8902966729526,608.885009765625,236418.0,[],[],[]
2026-04-09,586.0,597.0,581.0,589.0,102910.0,[],[],[]
2026-04-10,588.0,599.9630126953125,585.4509887695312,592.0,137658.0,[],[],[]
2026-04-13,582.0,591.0,582.0,586.0,77365.0,[],[],[]
2026-04-14,587.0,603.0,586.0,603.0,127667.0,[],[],[]
2026-04-15,608.0,610.0,598.0,605.0,129284.0,[],[],[]
2026-04-16,610.0,619.0,606.0499877929688,610.0,416411.0,[],[],[]
2026-04-17,608.0,630.0,604.4500122070312,629.0,199173.0,[],[],[]
2026-04-20,623.0,629.0,605.0,608.0,184181.0,[],[],[]
2026-04-21,610.0,624.0,610.0,619.0,159276.0,[],[],[]
2026-04-22,616.0,623.0,611.7930297851562,620.0,211508.0,[],[],[]
2026-04-23,620.0,620.0,613.2000122070312,614.0,325530.0,[],[],[]
2026-04-24,619.0,619.4099731445312,610.0,616.0,644017.0,[],[],[]
2026-04-27,624.0,625.0,607.0,622.0,153018.0,[],[],[]
2026-04-28,615.0,630.0,613.0,621.0,354560.0,[],[],[]
2026-04-29,622.0,634.0,616.0,619.0,240274.0,[],[],[]
2026-04-30,619.0,628.0,601.0,626.0,126929.0,[],[],[]
2026-05-01,627.0,634.0,614.9600219726562,623.0,122000.0,[],[],[]
2026-05-05,597.0,642.3579711914062,597.0,636.0,154464.0,[],[],[]
2026-05-06,645.0,672.0,641.0,666.0,229481.0,[],[],[]
2026-05-07,680.0,680.0,665.0,672.0,110055.0,[],[],[]
2026-05-08,639.0,674.0,639.0,672.0,250178.0,[],[],[]
2026-05-11,669.0,673.0,644.7999877929688,669.0,169425.0,[],[],[]
2026-05-12,668.0,675.0,664.5009765625,668.0,543189.0,[],[],[]
2026-05-13,672.0,684.0,668.0,678.0,120242.0,[],[],[]
2026-05-14,673.0,685.0,666.0,680.0,84367.0,[],[],[]
2026-05-15,675.0,680.0,665.0,673.0,148996.0,[],[],[]
2026-05-18,670.0,679.0,658.0,659.0,141994.0,[],[],[]
2026-05-19,660.0,660.0,650.4990234375,655.0,140178.0,[],[],[]
2026-05-20,655.0,671.0,649.8900146484375,667.0,123842.0,[],[],[]
2026-05-21,664.0,674.0,663.0,671.0,85436.0,[],[],[]
2026-05-22,677.0,689.9299926757812,663.9000244140625,682.0,78764.0,[],[],[]
2026-05-26,690.0,707.0,679.0,701.0,136875.0,[],[],[]
2026-05-27,709.0,716.9500122070312,703.0700073242188,706.0,122129.0,[],[],[]
2026-05-28,700.0,715.0,695.0,711.0,98772.0,[],[],[]
2026-05-29,715.0,717.0,707.0,708.0,136130.0,[],[],[]
2026-06-01,717.0,723.0,709.8820190429688,719.0,180783.0,[],[],[]
2026-06-02,720.0,730.0,714.719970703125,730.0,434797.0,[],[],[]
2026-06-03,730.0,730.0,706.0,716.0,312700.0,[],[],[]
2026-06-04,706.0,719.0,705.0,708.0,155360.0,[],[],[]
2026-06-05,705.0,710.0,690.0,691.0,66150.0,[],[],[]
2026-06-08,688.0,689.0,675.0,679.0,97548.0,[],[],[]
2026-06-09,675.0,690.0,671.0,671.0,96984.0,[],[],[]
2026-06-10,670.0,679.0,657.0070190429688,670.0,154323.0,[],[],[]
2026-06-11,667.0,679.0,660.9000244140625,666.0,113840.0,[],[],[]
2026-06-12,671.0,687.0,671.0,683.0,111568.0,[],[],[]
2026-06-15,689.0,703.0,688.0,703.0,128802.0,[],[],[]
2026-06-16,703.0,705.0,692.0,693.0,206894.0,[],[],[]
2026-06-17,708.0,708.0,693.4400024414062,697.0,129167.0,[],[],[]
2026-06-18,710.0,719.0,706.0499877929688,718.0,214857.0,[],[],[]
2026-06-19,708.0,720.0,708.0,720.0,178190.0,[],[],[]
2026-06-22,709.0,738.0,709.0,732.0,82609.0,[],[],[]
2026-06-23,700.0,714.0819702148438,695.3389892578125,701.0,272967.0,[],[],[]
2026-06-24,700.0,706.7949829101562,691.0,702.0,91755.0,[],[],[]
2026-06-25,704.0,719.0,702.7999877929688,710.0,130846.0,[],[],[]
2026-06-26,698.0,703.0,685.0,695.0,67934.0,[],[],[]
2026-06-29,708.0,708.0,689.0,690.0,62421.0,[],[],[]
2026-06-30,703.0,710.0,692.3709716796875,702.0,59949.0,[],[],[]
2026-07-01,710.0,710.0,700.0,705.0,69919.0,[],[],[]
2026-07-02,702.0,703.0,684.0,693.0,82504.0,[],[],[]
2026-07-03,690.0,705.0,690.0,702.0,70195.0,[],[],[]
2026-07-06,696.0,710.0,692.0,703.0,67877.0,[],[],[]
2026-07-07,698.0,698.0,682.719970703125,685.0,90879.0,[],[],[]
2026-07-08,694.0,694.0,667.0,680.0,73365.0,[],[],[]
2026-07-09,683.0,699.0,682.0,688.0,102055.0,[],[],[]
2026-07-10,691.0,699.0,681.9000244140625,691.0,89403.0,[],[],[]
2026-07-13,682.0,686.0,670.75,674.0,74799.0,[],[],[]
2026-07-14,674.0,680.0,667.75,672.0,208486.0,[],[],[]
2026-07-15,679.0,682.0,668.6439819335938,672.0,456134.0,[],[],[]
2026-07-16,674.0,680.0,668.0020141601562,671.0,90191.0,[],[],[]
2026-07-17,656.0,669.0,644.0,653.0,80105.0,[],[],[]
2026-07-20,654.0,662.0,646.4000244140625,662.0,206402.0,[],[],[]
2026-07-21,670.0,680.0,658.156982421875,675.0,77445.0,[],[],[]
2026-07-22,670.0,679.0,660.0,671.0,126935.0,[],[],[]
2026-07-23,680.0,680.0,665.0,670.0,476951.0,[],[],[]
2026-07-24,645.0,673.4400024414062,645.0,660.0,176216.0,[],[],[]
2026-07-27,684.0,687.0,661.0,669.0,376886.0,[],[],[]
2026-07-28,648.0,662.0,644.0,650.0,84454.0,[],[],[]
2026-07-29,641.0,660.0,641.0,660.0,419392.0,[],[],[]
2026-07-30,654.0,667.0,648.8400268554688,667.0,963731.0,[],[],[]
2026-07-31,680.0,700.0,680.0,690.0,174211.0,[],[],[]
2026-08-03,694.0,701.0,683.9910278320312,695.0,96619.0,[],[],[]
2026-08-04,706.0,706.0,692.0,704.0,97744.0,[],[],['hanging_man']
2026-08-05,713.0,714.0,702.9190063476562,709.0,113386.0,[],[],['hanging_man']
2026-08-06,702.0,709.0,700.0,704.0,118931.0,[],[],[]
2026-08-07,701.0,711.0,697.0,697.0,225275.0,[],[],[]
2026-08-10,697.0,698.0,696.4400024414062,698.0,124266.0,[],[],[]
2026-08-11,700.0,700.0,696.0399780273438,700.0,272682.0,[],[],[]
2026-08-12,715.0,715.0,697.7230224609375,703.0,218507.0,[],[],[]
2026-08-13,714.0,714.0,699.0910034179688,710.0,171360.0,[],[],[]
2026-08-14,705.0,715.0,699.0,708.0,56098.0,[],[],[]
2026-08-17,716.0,716.0,696.0,716.0,145726.0,[],[],['hanging_man']
2026-08-18,701.0,710.0,690.0,693.0,62708.0,[],[],[]
2026-08-19,688.0,699.2260131835938,685.0,697.0,86514.0,[],[],[]
2026-08-20,697.0,698.0,685.0,688.0,76509.0,[],[],[]
2026-08-21,688.0,704.0,686.052978515625,704.0,119029.0,[],[],[]
2026-08-24,701.0,701.0,686.2139892578125,695.0,102335.0,[],[],[]
2026-08-25,688.0,703.0,686.0,700.0,61377.0,[],[],[]
2026-08-26,704.0,705.0,692.8400268554688,700.0,127883.0,[],[],[]
2026-08-27,687.0,706.0,687.0,705.0,116767.0,[],[],[]
2026-08-28,702.0,712.0,693.60302734375,712.0,144812.0,[],[],[]
2026-09-01,710.0,716.0,699.0,699.0,146499.0,[],[],[]
2026-09-02,708.0,708.0,687.0,690.0,241686.0,[],[],[]
2026-09-03,696.0,699.0,688.47998046875,695.0,174137.0,[],[],[]
2026-09-04,706.0,714.0,698.1439819335938,706.0,154854.0,[],[],[]
2026-09-07,713.0,719.2570190429688,705.3499755859375,712.0,123909.0,[],[],[]
2026-09-08,710.0,724.0,693.7559814453125,714.0,99358.0,[],[],[]
2026-09-09,710.0,724.0,707.5579833984375,711.0,158663.0,[],[],[]
2026-09-10,705.0,710.8519897460938,696.0,705.0,308562.0,[],[],[]
2026-09-11,700.0,717.0,700.0,704.0,157395.0,[],[],[]
2026-09-14,698.0,717.0,686.0,691.0,263246.0,[],[],[]
2026-09-15,688.0,705.0,680.0,684.0,68020.0,[],[],[]
2026-09-16,700.0,705.0,681.0,700.0,67077.0,[],[],[]
2026-09-17,680.0,706.0,680.0,695.0,160441.0,[],[],[]
2026-09-18,690.0,708.0,690.0,696.0,122629.0,[],[],[]
2026-09-21,716.0,728.0,703.2139892578125,728.0,333969.0,[],[],[]
2026-09-22,730.0,741.0,724.0,730.0,290615.0,[],[],[]
2026-09-23,730.0,734.0,718.0,722.0,296320.0,[],[],[]
2026-09-24,746.0,746.0,717.0,726.0,236734.0,[],[],[]
2026-09-25,728.0,730.0,723.0,726.0040283203125,92887.0,[],[],[]
