Date,Open,High,Low,Close,Volume,signal,bull_patterns,bear_patterns
2017-03-05,271.4604949111239,279.44463752941505,271.4604949111239,277.9475402832031,226070.0,[],[],[]
2017-03-12,280.19314995136887,281.9396789359277,275.97454417480554,278.3218688964844,224637.0,[],[],[]
2017-03-19,281.19109721364316,286.92970275878906,278.44655234288,286.4306945800781,352540.0,[],[],[]
2017-03-26,286.9296569824219,286.9296569824219,279.444610060307,284.9336853027344,290291.0,[],[],[]
2017-04-02,286.43070997295143,289.42472836720094,281.7350561600342,284.4346923828125,330090.0,[],[],[]
2017-04-09,287.42870332792205,289.1752319335937,279.4879410114694,281.2347717285156,410084.0,[],[],[]
2017-04-16,279.4879570295162,284.4698883039162,279.06381990884523,281.3595886230469,171377.0,[],[],[]
2017-04-23,284.2292705862669,284.2292705862669,274.62984974488995,279.7375183105469,361800.0,[],[],[]
2017-04-30,283.48066083923396,285.9760801288444,279.4879754753011,283.48065185546875,249207.0,[],[],[]
2017-05-07,284.7284420934217,290.46786559376346,284.7284420934217,290.21832275390625,216332.0,[],[],[]
2017-05-14,290.21832517635414,297.2554191269686,288.5962967037434,296.3321228027344,472186.0,[],[],[]
2017-05-21,298.45327022602453,298.45327022602453,289.96881959829756,292.5890197753906,287073.0,[],[],['dark_cloud_cover']
2017-05-28,290.46783447265625,296.9559714907692,288.97057759393124,294.21099853515625,365413.0,[],[],[]
2017-06-04,294.9596426328158,297.4550553468246,291.466057004767,291.9651184082031,190067.0,[],[],[]
2017-06-11,292.2146570664295,306.4386291503906,291.5658559625634,306.4386291503906,207045.0,[],[],[]
2017-06-18,306.93769092920286,309.4330864577997,301.4477484898187,304.4422302246094,440469.0,[],[],[]
2017-06-25,307.4367576092124,314.9230125935057,308.93401454562087,313.1763000488281,143711.0,[],[],[]
2017-07-02,309.93221557617187,315.42215820312504,308.4349060058594,310.4313049316406,137785.0,[],[],[]
2017-07-09,314.17446962486963,314.17446962486963,307.4367729556718,308.7344055175781,218077.0,[],[],[]
2017-07-16,309.3832092285156,315.1725966295176,306.47356448102335,313.301025390625,283708.0,[],[],[]
2017-07-23,311.42946302947274,323.40755806670415,311.42946302947274,319.0405578613281,295772.0,[],[],[]
2017-07-30,316.66981728379574,322.4741853235907,315.4221579007007,318.66619873046875,327554.0,[],[],[]
2017-08-06,318.1671166588808,321.4112057276276,314.1744079589844,317.044189453125,415706.0,[],[],[]
2017-08-13,321.41123472969485,324.4057049791848,313.5785062113189,317.91754150390625,402442.0,[],[],[]
2017-08-20,317.4185155790801,326.0826256202515,314.74141297330584,321.66070556640625,354467.0,[],[],[]
2017-08-27,324.1561261717625,337.38194994871316,322.70876561769626,334.51220703125,485955.0,[],[],[]
2017-09-03,332.39105704039605,337.38195375433213,330.39471435546875,333.01495361328125,260658.0,[],[],[]
2017-09-10,331.8919642100077,337.5814955890268,330.3947244554702,333.88836669921875,410207.0,[],[],[]
2017-09-17,330.89373668992374,335.38556383327096,321.8783544340886,321.9103088378906,414200.0,[],[],[]
2017-09-24,324.405725535953,330.49457819111336,324.405725535953,327.8992919921875,262019.0,[],[],[]
2017-10-01,329.8956371511212,329.8956371511212,322.4093017578125,327.4002380371094,427939.0,[],[],[]
2017-10-08,329.3965612139021,346.86453784055936,329.3915654830302,344.61865234375,366631.0,[],[],[]
2017-10-15,347.1141357421875,354.35083249194474,344.868192202085,353.3526611328125,420312.0,[],[],[]
2017-10-22,353.3526593262751,356.3471801064231,351.3563232421875,351.3563232421875,468387.0,[],[],[]
2017-10-29,354.1012896521617,354.5305253926544,351.356318414548,353.8517761230469,268293.0,[],[],[]
2017-11-05,353.3526611328125,361.926945694895,352.35448977368026,361.2132568359375,423713.0,[],[],[]
2017-11-12,359.34168436314246,369.0738525390625,359.34168436314246,367.8261413574219,712692.0,[],[],[]
2017-11-19,369.3234007958652,370.62100114829207,361.5875210162291,363.33441162109375,624570.0,[],[],['dark_cloud_cover']
2017-11-26,363.33435293991045,371.3197056079201,361.8370959909823,370.5711059570313,496233.0,[],[],[]
2017-12-03,367.82618319333255,369.3234403840788,350.3581971969848,351.48114013671875,6721241.0,[],[],[]
2017-12-10,351.35635501867,352.6040693475715,346.36544504049266,347.6131591796875,516031.0,[],[],[]
2017-12-17,349.85900992257257,354.6004103693748,349.35992431640625,351.6058959960937,473985.0,[],[],[]
2017-12-24,354.3507881164551,361.8371809030267,353.35261688232424,358.9674377441406,320878.0,[],[],[]
2017-12-31,361.8371809030267,361.8371809030267,361.3380737304688,361.3380737304688,83647.0,[],[],[]
2018-01-07,362.336182819235,378.30694822281134,359.3416896263216,377.3087768554688,323716.0,[],[],[]
2018-01-14,377.308738218535,382.29959454417695,377.308738218535,377.3087768554688,705067.0,[],[],[]
2018-01-21,381.3015008138021,381.3015008138021,374.3143005371094,375.31243896484375,679331.0,[],[],[]
2018-01-28,377.3087866472051,377.3087866472051,362.336176958476,366.8279724121094,988386.0,[],[],[]
2018-02-04,368.32522823499596,371.3197884744044,361.3380737304688,362.336181640625,636409.0,[],[],[]
2018-02-11,358.3435179284737,358.3435179284737,332.39107410682305,344.86822509765625,973317.0,[],[],[]
2018-02-18,348.36184188103744,365.330690817637,347.3636704143296,364.33251953125,1479582.0,[],[],[]
2018-02-25,359.3416442871094,364.33252780434174,354.3508605957031,360.83892822265625,735166.0,[],[],[]
2018-03-04,365.33075454208875,366.3288903575126,360.33984375,361.3380737304688,494227.0,[],[],[]
2018-03-11,361.33801034133955,371.3197350514867,361.33801034133955,370.3215637207031,1256256.0,[],[],[]
2018-03-18,370.3215893292875,377.30878912795333,368.3252258300781,368.3252258300781,951826.0,[],[],[]
2018-03-25,370.3216118445763,370.3216118445763,349.3600083478112,352.3545227050781,741755.0,[],[],[]
2018-04-01,354.35083249194474,357.34533810915644,348.36181640625,353.3526611328125,999665.0,[],[],[]
2018-04-08,353.3526611328125,353.3526611328125,345.36724853515625,350.40679931640625,680939.0,[],[],[]
2018-04-15,350.4068101395008,350.4068101395008,343.41864013671875,343.41864013671875,527968.0,[],[],[]
2018-04-22,343.41864013671875,351.4050362723214,339.42530722513686,349.4084167480469,1036834.0,[],[],[]
2018-04-29,349.40850013910335,349.40850013910335,341.42197598056595,345.41522216796875,607815.0,[],[],[]
2018-05-06,349.4084167480469,358.3932189941406,346.41348746163504,358.3932189941406,606527.0,[],[],[]
2018-05-13,357.3949162672882,363.3847916621581,355.3982966233369,360.3898620605469,561278.0,[],[],[]
2018-05-20,364.3830988315937,366.3797302246094,362.3864906581286,362.8856201171875,489306.0,[],[],[]
2018-05-27,367.3780284110315,368.376352214425,364.3830988315937,367.877197265625,660001.0,[],[],[]
2018-06-03,369.3746032714844,369.3746526454522,364.383110441369,368.3763427734375,335902.0,[],[],[]
2018-06-10,369.37465708742866,376.36279296875,367.3780302159927,372.3695373535156,509642.0,[],[],[]
2018-06-17,370.37298583984375,374.3661612518563,362.3864440917969,362.3864440917969,679969.0,[],[],[]
2018-06-24,366.3797418345576,371.3712914508322,362.3864440917969,362.3864440917969,445107.0,[],[],[]
2018-07-01,364.3831228253587,364.3831228253587,354.39996337890625,358.3932189941406,608100.0,[],[],[]
2018-07-08,356.39663256629035,356.39663256629035,352.40334386691245,354.39996337890625,579961.0,[],[],[]
2018-07-15,355.3982966233369,361.38819088406035,352.4033929857157,359.3915710449219,340867.0,[],[],[]
2018-07-22,363.38477519914215,366.3797162844811,356.10409766195363,363.8839416503906,477510.0,[],[],[]
2018-07-29,366.3797068138645,368.37635000784974,360.38984784688034,364.8822326660156,368650.0,[],[],[]
2018-08-05,361.38818359375,364.3831065784801,351.405029296875,351.405029296875,434524.0,[],[],[]
2018-08-12,358.3932094844137,367.3780166416952,351.40504105435554,366.3797302246094,356341.0,[],[],[]
2018-08-19,363.38480992336713,368.3763603210449,353.4016956800825,355.8974914550781,383584.0,[],[],[]
2018-08-26,360.3898809644911,361.38819088406035,357.3949512057834,358.8923645019531,444011.0,[],[],[]
2018-09-02,364.38306361847344,365.3814086914063,357.3949584960937,357.3949584960937,333049.0,[],[],[]
2018-09-09,363.38475385513516,364.38306361847344,342.42025528831044,347.41180419921875,374168.0,[],[],[]
2018-09-16,342.4202880859375,343.41864013671875,334.4338073730469,343.41864013671875,278657.0,[],[],[]
2018-09-23,342.4202835980584,348.4101139814004,337.42873427447154,347.41180419921875,487172.0,[],[],[]
2018-09-30,349.4084167480469,352.4033508300781,347.4117972237723,349.4084167480469,321781.0,[],[],[]
2018-10-07,352.40336022343195,353.20199587889914,334.4338073730469,334.4338073730469,275163.0,[],[],[]
2018-10-14,334.4337481874408,334.4337481874408,308.4777359872494,323.4523620605469,533729.0,[],[],[]
2018-10-21,322.4541015625,325.2992696165086,320.45748173858357,321.9549255371094,330442.0,[],[],[]
2018-10-28,327.44560591671444,327.44560591671444,315.46592351389984,316.4642333984375,383922.0,[],[],[]
2018-11-04,319.2594699130259,335.4320961556783,314.76707569961934,327.44561767578125,442784.0,[],[],[]
2018-11-11,332.0378347270707,333.734961990751,324.45068359375,325.44903564453125,307738.0,[],[],[]
2018-11-18,332.437128795277,336.43040820530484,323.4524064115141,335.4320983886719,546834.0,[],[],[]
2018-11-25,329.4422372039658,335.4321057967557,325.4490190154704,328.4439697265625,228665.0,[],[],[]
2018-12-02,332.4371876275361,342.42029533498095,331.4388799568165,340.4236755371094,357677.0,[],[],[]
2018-12-09,353.4017028808594,353.4017028808594,329.4422467646708,332.93634033203125,271861.0,[],[],[]
2018-12-16,327.6453012414447,338.42706600349106,325.4490074099475,333.4355163574219,226392.0,[],[],[]
2018-12-23,339.42537290860065,339.42537290860065,328.4439667113527,333.4355163574219,412053.0,[],[],[]
2018-12-30,334.4337887105522,334.4338152711643,325.44902620417776,326.4472961425781,134574.0,[],[],[]
2019-01-06,331.4388615818542,331.4388615818542,321.4557472718965,325.44903564453125,182009.0,[],[],[]
2019-01-13,323.4523620605469,333.43546230821727,323.4523620605469,331.4388427734375,599348.0,[],[],[]
2019-01-20,328.4439697265625,336.43040820530484,328.4439481365147,335.4320983886719,562507.0,[],[],[]
2019-01-27,334.4338073730469,338.42705419042085,326.44732176626326,329.94140625,270989.0,[],[],[]
2019-02-03,330.4405678820254,344.4169055944306,330.4405678820254,340.9228210449219,621327.0,[],[],[]
2019-02-10,340.4236403245192,349.40846173060424,337.4287109375,346.4134521484375,388850.0,[],[],[]
2019-02-17,347.4117972237723,357.3949162672882,346.1639100211007,352.9025573730469,431402.0,[],[],[]
2019-02-24,356.3966464220558,357.39495635601116,352.4033929857157,355.8974914550781,446502.0,[],[],['hanging_man']
2019-03-03,359.39155219334316,361.3881719277506,349.4084215029103,353.4017028808594,319563.0,[],[],[]
2019-03-10,351.40504105435554,355.39828254473724,349.4084098122337,347.41180419921875,294948.0,[],[],[]
2019-03-17,347.41180419921875,354.36002946001537,343.41864013671875,343.41864013671875,478230.0,[],[],[]
2019-03-24,344.41691663681945,356.3966064453125,344.41691663681945,354.39996337890625,462097.0,[],[],[]
2019-03-31,346.4134944170371,363.3847961425781,346.4134944170371,363.3847961425781,740004.0,[],[],[]
2019-04-07,366.3797185512189,369.3746032714844,362.3864906581286,366.3797302246094,687432.0,[],[],[]
2019-04-14,368.37629353291277,372.36960137408715,362.4475568118232,365.9422302246094,669780.0,[],[],[]
2019-04-21,368.4384007284086,368.4384007284086,364.4444885253906,365.4430236816406,502743.0,[],[],[]
2019-04-28,368.4384460449219,368.43845830198194,364.4444885253906,364.4444885253906,411950.0,[],[],[]
2019-05-05,365.4430236816406,365.4430236816406,358.4536437988281,359.4521484375,477363.0,[],[],[]
2019-05-12,356.45667693574546,356.45667693574546,346.4718893643083,347.4703674316406,502260.0,[],[],[]
2019-05-19,348.46887377070544,352.4627685546875,339.48253609283626,348.4689025878906,925977.0,[],[],[]
2019-05-26,348.4688842420633,350.4657897949219,344.4749215932993,347.4703674316406,1038446.0,[],[],[]
2019-06-02,348.46883178537297,351.4643372806232,346.47186279296875,348.4689025878906,284119.0,[],[],[]
2019-06-09,348.46886010603464,351.4642944335937,346.47190981006486,350.4657897949219,502413.0,[],[],[]
2019-06-16,356.89596726502754,362.4475708007813,350.4657667144006,356.4566345214844,524756.0,[],[],[]
2019-06-23,353.4612006179425,371.43382691427536,353.4612006179425,366.4414367675781,661060.0,[],[],[]
2019-06-30,367.4399678713584,369.4368896484375,360.4506326477384,367.4399108886719,461214.0,[],[],[]
2019-07-07,370.435327476143,378.4231872558594,370.435327476143,378.4231872558594,548326.0,[],[],[]
2019-07-14,375.4277648925781,375.4277728891628,367.4399108886719,374.4292907714844,462655.0,[],[],[]
2019-07-21,375.4277648925781,378.4231951888107,372.43232666339424,376.9254455566406,330571.0,[],[],[]
2019-07-28,374.4292887803242,379.4216813151042,372.4323325734958,377.9239501953125,578850.0,[],[],[]
2019-08-04,377.4247171012413,384.41410114497495,370.43535591514126,372.4323120117188,403530.0,[],[],[]
2019-08-11,364.4444681659908,365.96322692706775,349.4673117613181,365.4430236816406,1212814.0,[],[],[]
2019-08-18,359.45213633135336,364.3946153943636,345.4733996269031,352.4627685546875,1012875.0,[],[],[]
2019-08-25,355.5580350264226,368.67407302772403,355.5580350264226,354.9589538574219,1043400.0,[],[],[]
2019-09-01,352.4627970435157,363.44603438098454,350.46583466865644,358.4536437988281,263096.0,[],[],[]
2019-09-08,363.446038443283,367.4399615831612,355.4582134225515,367.4399108886719,798010.0,[],[],[]
2019-09-15,362.4475207950758,372.43231594947076,362.4475207950758,371.433837890625,323225.0,[],[],[]
2019-09-22,367.4399514257011,368.4384356488238,359.4521484375,359.4521484375,395977.0,[],[],[]
2019-09-29,359.4521484375,370.4353637695313,356.45671588754453,370.4353637695313,354649.0,[],[],[]
2019-10-06,364.44452914533946,366.4414606067943,355.4582094495343,356.4566345214844,313852.0,[],[],[]
2019-10-13,359.4521323403159,367.43993870109074,355.45819091796875,355.45819091796875,476431.0,[],[],[]
2019-10-20,356.4567018619254,362.44757260604644,353.4612453809405,358.4536437988281,634604.0,[],[],[]
2019-10-27,356.45666898234504,360.49052889434245,352.4627567248398,359.4521484375,286635.0,[],[],[]
2019-11-03,356.45671386718755,366.4414367675781,353.9605183919271,366.4414367675781,326789.0,[],[],[]
2019-11-10,369.4368708555965,375.3278922575299,363.32619019142004,373.4308166503906,647631.0,[],[],[]
2019-11-17,366.4414367675781,369.4368669261103,358.45367024739585,359.4521484375,431447.0,[],[],[]
2019-11-24,360.45055764551324,365.44300527020926,357.45518601286955,360.9498596191406,364614.0,[],[],[]
2019-12-01,362.4475136435493,364.63418289908935,358.45360744016017,359.9513244628906,676463.0,[],[],[]
2019-12-08,361.4490356445313,362.34765974942144,350.926063594964,358.4536437988281,539840.0,[],[],[]
2019-12-15,359.4521139467192,365.44300121265456,355.4582015695334,363.446044921875,708128.0,[],[],[]
2019-12-22,364.44446964158544,364.44446964158544,359.4520796464952,359.4521484375,2336149.0,[],[],[]
2019-12-29,363.44606726807973,375.9749282612088,360.4506326477384,369.4368896484375,341253.0,[],[],[]
2020-01-05,370.43536772856845,374.0798066268197,366.4414328699527,369.9361572265625,593497.0,[],[],[]
2020-01-12,367.4399800952015,376.093749994183,365.4430236816406,373.4308166503906,623679.0,[],[],[]
2020-01-19,375.4277856065819,386.72955603108477,372.75187146905427,386.4110412597656,556349.0,[],[],[]
2020-01-26,386.41104529188084,387.89678736562104,366.4414514916927,370.4353637695313,822863.0,[],[],[]
2020-02-02,364.44453938802087,368.0220313741947,346.4718512834821,349.46728515625,815440.0,[],[],[]
2020-02-09,350.46583466865644,374.4292760473699,346.7714532828404,368.9376525878906,432726.0,[],[],[]
2020-02-16,368.4383908641582,379.20700815049287,365.4429567920918,373.9299926757813,513425.0,[],[],[]
2020-02-23,375.42776888020836,377.42472912793494,364.4445454748602,365.4430236816406,581607.0,[],[],[]
2020-03-01,359.45211930708444,364.2448020427255,324.5054038174181,331.4947509765625,1117086.0,[],[],[]
2020-03-08,339.4825704356443,353.9714444769739,332.74282085227406,338.48406982421875,715430.0,[],[],[]
2020-03-15,325.50387745983187,328.4992893696568,291.99493848346174,307.53125,1183974.0,[],[],[]
2020-03-22,297.5464964113035,299.27686079648174,243.6286613710465,297.5464782714844,1458937.0,[],[],[]
2020-03-29,286.56320288873485,312.5236690494564,271.5860320060484,285.56475830078125,1139886.0,['RSI_OVERSOLD'],['RSI_OVERSOLD'],[]
2020-04-05,288.5602209389615,312.3679310333769,283.56780037987966,305.5342712402344,1020564.0,[],[],[]
2020-04-12,309.5282128206484,326.5023193359375,309.5282128206484,318.5792541503906,843088.0,[],[],[]
2020-04-19,319.577880859375,332.5607707630504,309.59107208251953,329.5647277832031,1296743.0,[],[],[]
2020-04-26,329.5646765472692,331.2124938345415,313.585845285894,322.573974609375,443914.0,[],[],[]
2020-05-03,325.5700214828443,332.5607849687984,313.585845285894,322.573974609375,860203.0,[],[],[]
2020-05-10,322.573974609375,332.5607604980469,318.27965834575355,332.5607604980469,385667.0,[],[],[]
2020-05-17,328.56603324704054,338.55281906579364,323.57262848644723,330.0640869140625,800841.0,[],[],[]
2020-05-24,329.56470444623164,349.3586264278599,329.56470444623164,339.551513671875,579860.0,[],[],[]
2020-05-31,339.55155389157335,349.2886940399346,339.07717430170067,343.5462951660156,677332.0,[],[],[]
2020-06-07,349.82294411274825,356.52911376953125,344.54491187786226,356.52911376953125,733320.0,[],[],[]
2020-06-14,360.3190925427387,362.0018688335793,340.9316996155774,342.5475769042969,944462.0,[],[],[]
2020-06-21,338.5528445798623,358.5284702435997,335.55680170747416,358.5264587402344,1858969.0,[],[],[]
2020-06-28,356.52912050385714,368.9427006457829,354.0953231796456,368.5132751464844,1037678.0,[],[],[]
2020-07-05,360.52377043423587,378.50006103515625,360.52377043423587,378.50006103515625,712511.0,[],[],[]
2020-07-12,380.49743009042623,389.4855651855469,379.4987573337679,389.4855651855469,757257.0,[],[],[]
2020-07-19,389.48557535807294,392.4816182454427,374.5053374358406,378.50006103515625,623621.0,[],[],[]
2020-07-26,379.4987606405426,385.6656119046982,375.5040907261394,378.0007934570313,744986.0,[],[],[]
2020-08-02,381.49612078679337,386.76919703353894,372.5079956054688,372.5079956054688,671949.0,[],[],[]
2020-08-09,372.5079823544151,393.4803181703629,372.5079823544151,382.4948120117188,450038.0,[],[],[]
2020-08-16,380.49742338829435,407.2441082088032,380.49742338829435,393.4802856445313,538648.0,[],[],[]
2020-08-23,398.47373627359923,401.4697348749803,390.48424286043587,393.4802856445313,679211.0,[],[],[]
2020-08-30,399.4723815917969,409.4591979980469,390.48425300598143,409.4591979980469,894876.0,[],[],[]
2020-09-06,408.4604929454291,412.4552165928172,392.4816182454427,395.4776611328125,764297.0,[],[],[]
2020-09-13,398.47373775948313,409.905595976135,396.4763054422813,404.4657897949219,520303.0,[],[],[]
2020-09-20,410.4578971635457,429.43283439242225,408.47053169644704,421.4433288574219,648250.0,[],[],[]
2020-09-27,422.44202662876677,427.43543119884674,412.4552001953125,420.4447021484375,368623.0,[],[],[]
2020-10-04,421.4433935430061,432.6815240354753,414.4525627389338,431.43017578125,967625.0,[],[],[]
2020-10-11,435.42493718876307,450.4050903320313,429.43285089717455,450.4050903320313,759980.0,[],[],[]
2020-10-18,451.4037780761719,460.96818976560604,443.414343947507,450.4050903320313,1015036.0,[],[],[]
2020-10-25,453.40115009809125,455.398501775961,448.40772851237705,451.9031066894531,813123.0,[],[],[]
2020-11-01,454.3998310454439,454.3998310454439,438.42094251844617,440.4183044433594,708709.0,[],[],[]
2020-11-08,445.41170585718044,459.3932495117188,441.4169535887308,452.4024963378906,683488.0,[],[],[]
2020-11-15,459.39320968369304,476.11111803987393,452.01202084147934,456.3971862792969,1024413.0,[],[],[]
2020-11-22,466.3839890346732,470.3627666410075,457.39587072066934,467.3826599121094,1096117.0,[],[],[]
2020-11-29,470.3787469092836,474.37342619284607,458.3945318368765,470.3786926269531,1166913.0,[],[],[]
2020-12-06,469.3800317907846,472.3761088919133,461.39058444115426,469.3800659179688,1575676.0,[],[],[]
2020-12-13,473.37477620442706,482.3629117191586,467.1529828364857,478.3681640625,1199456.0,[],[],[]
2020-12-20,477.3695068359375,480.2736606318192,470.3786926269531,470.3786926269531,1310532.0,[],[],[]
2020-12-27,482.36288777074634,482.36288777074634,469.38005902278377,475.37213134765625,905897.0,[],[],[]
2021-01-03,483.3615841318188,491.35102329371165,476.4956525390373,488.35498046875,616364.0,[],[],[]
2021-01-10,492.34969410469864,511.3246629901961,487.3562894991743,509.3273010253906,1502907.0,[],[],[]
2021-01-17,509.3273077738962,516.8852946943807,507.32994578262606,509.3273010253906,1424477.0,[],[],[]
2021-01-24,519.3141106695568,533.9347498742093,508.83493966536025,529.3009033203125,1488015.0,[],[],[]
2021-01-31,539.2877613414418,539.2877613414418,495.07406647895044,499.3404846191406,1258173.0,[],[],[]
2021-02-07,509.32735814194734,535.6285716512621,501.33790938677953,533.295654296875,900618.0,[],[],[]
2021-02-14,527.3035414209905,547.2771947524127,523.3088176223467,543.282470703125,1028856.0,[],[],[]
2021-02-21,549.2745431146939,550.2732589324611,531.298211895978,537.2904052734375,1169308.0,[],[],[]
2021-02-28,529.3008481314356,532.2968906680286,503.3351577939723,505.33251953125,1195046.0,[],[],[]
2021-03-07,505.33254050472067,522.4649545265505,484.36025670213445,488.35498046875,1396186.0,[],[],[]
2021-03-14,499.3404778306613,511.324604743083,485.7694130521977,505.33251953125,1733484.0,[],[],[]
2021-03-21,503.33520849609374,513.3220249550016,499.3404846191406,501.33782958984375,894838.0,[],[],[]
2021-03-28,499.3404711962217,507.66946659849583,492.34971783447264,503.335205078125,1062095.0,[],[],[]
2021-04-04,511.32465625,511.5483290395372,498.2818818462806,508.3285827636719,888370.0,[],[],[]
2021-04-11,513.3220825195312,517.7361403407176,505.33254050472067,517.3167114257812,1252259.0,[],[],[]
2021-04-18,513.3219841256243,518.655008221078,500.85435178447847,507.4006042480469,1146713.0,[],[],[]
2021-04-25,519.3864143037226,519.3864143037226,492.77583284303546,503.4052734375,884352.0,[],[],[]
2021-05-02,511.3958127470356,518.1878591404753,498.41115343900543,503.4052734375,932677.0,[],[],[]
2021-05-09,509.39820373535156,509.39820373535156,495.41475366550696,501.40765380859375,728490.0,[],[],[]
2021-05-16,501.4076852546986,501.4076852546986,471.4430541992188,480.4324035644531,912840.0,[],[],[]
2021-05-23,478.43478406458524,496.41352301774054,471.44304400518627,480.4324035644531,810101.0,[],[],[]
2021-05-30,478.4348141998671,497.4123637705197,477.7456259120766,493.4170837402344,701377.0,[],[],[]
2021-06-06,493.41708364840616,499.41000369271876,485.42649353400276,490.4205932617188,448418.0,[],[],[]
2021-06-13,490.42064406232134,499.6527387265815,482.4300939841349,498.4112243652344,662877.0,[],[],[]
2021-06-20,494.4159138587214,500.4088340267059,486.4253540039063,486.4253540039063,677097.0,[],[],[]
2021-06-27,490.4206642630618,501.4076540547033,485.4265638123178,495.4147338867188,698587.0,[],[],[]
2021-07-04,496.41355391471626,505.40289288384844,493.41710384016534,497.4123840332031,384341.0,[],[],[]
2021-07-11,497.4123636474609,505.40294432616207,485.42653397515085,490.4205932617188,844045.0,[],[],[]
2021-07-18,490.42065454701907,501.4076126626942,487.4241943359375,496.9129638671875,433150.0,[],[],[]
2021-07-25,498.41115282606455,498.41115282606455,489.3518486044119,490.4205932617188,417663.0,[],[],[]
2021-08-01,489.4217936197917,492.418274176439,469.4454040527344,481.4312744140625,906014.0,[],[],[]
2021-08-08,487.42418391530106,503.4052836914062,483.4288536429163,499.4100036621094,471572.0,[],[],[]
2021-08-15,493.41708361816404,504.40410369873047,493.41708361816404,498.4112243652344,508492.0,[],[],[]
2021-08-22,495.4147338867188,501.4076540547033,482.5549162493541,488.9223937988281,989995.0,[],[],[]
2021-08-29,496.4135335286458,505.40293391862235,491.1397652166585,496.9129638671875,864321.0,[],[],[]
2021-09-05,494.4159136160436,507.9000142915981,494.4159136160436,497.4123840332031,651823.0,[],[],[]
2021-09-12,513.3934526405787,517.3887532552083,503.4052531728632,503.4052734375,463738.0,[],[],[]
2021-09-19,505.402964073842,507.4006042480469,491.72710424294746,494.4158935546875,597001.0,[],[],[]
2021-09-26,493.41709407884247,503.4052836914062,484.5525663259078,501.40765380859375,504268.0,[],[],[]
2021-10-03,497.4123736985651,504.13642475898735,487.024611543185,490.4205932617188,423517.0,[],[],[]
2021-10-10,483.42891430412374,499.4100036621094,482.4300942332474,499.4100036621094,574295.0,[],[],[]
2021-10-17,498.4112249842522,501.4076852546986,481.4312744140625,481.4312744140625,1234867.0,[],[],[]
2021-10-24,489.42178325692726,499.4100037856623,480.4324035644531,494.4158935546875,446663.0,[],[],[]
2021-10-31,492.4182841603349,498.4112044543755,482.9095282671553,489.42181396484375,475692.0,[],[],[]
2021-11-07,493.41708361816404,505.4029444192787,487.2743466694336,505.4028930664063,431085.0,[],[],[]
2021-11-14,493.4170735677083,523.3816936786358,493.4170735677083,519.3864135742188,442909.0,[],[],[]
2021-11-21,519.3864133421459,527.3769941257157,511.3958435058594,511.3958435058594,623975.0,[],[],[]
2021-11-28,517.3887635469437,519.3864035606384,490.49752859126215,499.4100036621094,425872.0,[],[],[]
2021-12-05,501.4076642262409,516.6396382649739,493.41709358853643,515.39111328125,373190.0,[],[],[]
2021-12-12,511.3959143968872,523.3816731770833,491.41944336891174,511.3958435058594,817165.0,[],[],[]
2021-12-19,513.3935247706617,517.23895772075,492.41825358072913,503.4052734375,1168255.0,[],[],[]
2021-12-26,496.4135541643415,507.4006042480469,485.8340419368134,495.4147338867188,2330358.0,[],[],[]
2022-01-02,501.4076540547033,506.9410843192729,492.41827380272656,505.4028930664063,129363.0,[],[],[]
2022-01-09,505.402964073842,510.1293753612545,492.41825358072913,497.4123840332031,269066.0,[],[],[]
2022-01-16,491.4194436035156,505.40293391862235,490.4206136067708,495.4147338867188,380588.0,[],[],[]
2022-01-23,496.41351318359375,503.4052528058979,488.4230041503906,488.4230041503906,390817.0,[],[],[]
2022-01-30,487.4241433892368,494.41588315096766,466.4489339192708,475.4383239746094,864315.0,[],[],[]
2022-02-06,480.4324337083466,495.2399116915912,470.9436631749888,485.426513671875,677516.0,[],[],[]
2022-02-13,485.4265638123178,499.0564379309974,483.4288935507498,495.4147338867188,886852.0,[],[],[]
2022-02-20,485.4265443790033,493.41705309834845,479.43363402061857,486.4253540039063,344541.0,[],[],[]
2022-02-27,479.43364482544456,486.42538547914893,456.4607542618462,469.4454040527344,320259.0,[],[],[]
2022-03-06,466.4489541775637,481.43128501221724,457.4595742930537,459.4572143554688,436783.0,[],[],[]
2022-03-13,434.48671491755994,454.4631156034248,413.76019359157283,437.4831848144531,769693.0,[],[],[]
2022-03-20,429.4926449112749,466.4489754089622,409.51620476009197,454.463134765625,1020058.0,[],[],[]
2022-03-27,455.46195457491814,469.44542472593247,443.47607421875,446.4725341796875,923470.0,[],[],[]
2022-04-03,447.4713745117188,461.4548750298513,438.85453994882334,452.4654846191406,1042272.0,[],[],[]
2022-04-10,456.96016427744996,468.9460258735405,444.4749144145421,444.4749145507813,1265729.0,[],[],[]
2022-04-17,445.4737244341228,465.94951347317465,441.9778543993259,457.958984375,551014.0,[],[],[]
2022-04-24,445.9731544664171,457.08002859869765,432.22839605601206,438.4819946289063,853661.0,[],[],[]
2022-05-01,429.9920043945313,444.97433545342807,420.5854127991874,434.0721130371094,948499.0,[],[],[]
2022-05-08,433.0730972111365,438.0681817241918,414.0918314738446,414.5913391113281,779275.0,[],[],[]
2022-05-15,416.0898408489463,421.5844257173084,402.31140855923667,419.5863952636719,923964.0,['hammer'],['hammer'],[]
2022-05-22,403.6021516345796,431.07504750883777,403.6021516345796,419.5863952636719,908054.0,[],[],[]
2022-05-29,421.5844091388027,421.83416293568587,396.69891092203324,403.6021728515625,1478794.0,[],[],[]
2022-06-05,409.59623092961283,429.5765433237578,403.57717046284716,419.0868835449219,365754.0,[],[],[]
2022-06-12,417.0888635210772,432.5735795506221,416.5893495832171,419.5863952636719,805217.0,[],[],[]
2022-06-19,417.0888812869203,424.5814588904523,396.3982831284404,398.6070861816406,637698.0,[],[],[]
2022-06-26,400.6051151926925,417.5883534437308,394.6110229492188,407.5982360839844,337940.0,[],[],[]
2022-07-03,405.60018099561154,421.58444188098423,396.9686927457503,398.1075744628906,634954.0,[],[],[]
2022-07-10,404.6011657714844,412.5932809208216,392.11347720097484,400.1055908203125,360504.0,[],[],[]
2022-07-17,396.109523464935,406.59919801476883,391.1144132168043,401.1046142578125,596125.0,[],[],[]
2022-07-24,402.60315757222696,420.5853772530189,400.6051270135559,415.5903015136719,288541.0,[],[],[]
2022-07-31,417.58836009201497,418.08786769978053,403.7829498547483,411.5942687988281,795045.0,[],[],[]
2022-08-07,409.0967225680386,422.48352009058675,393.61198466532943,413.59228515625,589870.0,[],[],[]
2022-08-14,409.5962147065857,423.7323188624892,409.5962147065857,420.0859069824219,333674.0,[],[],[]
2022-08-21,416.58936393190913,429.5765380859375,405.60018605199355,429.5765380859375,1394715.0,[],[],[]
2022-08-28,422.08389697063615,433.0731138216032,410.09571528152935,428.5775451660156,720903.0,[],[],[]
2022-09-04,423.5824196817745,428.2528032698134,413.3425256559889,416.5893249511719,904971.0,[],[],[]
2022-09-11,420.58538818359375,427.07902006261486,412.5932922363281,424.58148193359375,956904.0,[],[],[]
2022-09-18,421.98401403893877,428.5775196800095,408.0927224412455,422.08392333984375,675627.0,[],[],[]
2022-09-25,417.08885719662624,420.92507200910535,408.59722315223473,411.5942687988281,378433.0,[],[],[]
2022-10-02,416.0898256073728,426.57948507646626,390.6149561129623,397.6080627441406,656976.0,[],[],[]
2022-10-09,390.6149574299499,408.5971984863281,383.62185077519376,397.1085815429688,849609.0,[],[],[]
2022-10-16,403.60214579315567,403.60214579315567,381.6238098144531,392.1134643554688,855682.0,[],[],[]
2022-10-23,385.1203489303589,392.2293382137044,378.1272808520825,380.6248168945313,910170.0,['inverted_hammer'],['inverted_hammer'],[]
2022-10-30,375.6297095935827,388.11739510952947,366.13909912109375,366.13909912109375,836308.0,['RSI_OVERSOLD'],['RSI_OVERSOLD'],[]
2022-11-06,366.1390531396353,394.6110229492188,366.1390531396353,394.6110229492188,862895.0,['engulfing'],[],[]
2022-11-13,394.61100478490994,413.3425262526339,383.6218438279302,405.6001586914063,597999.0,[],[],[]
2022-11-20,409.59624653001094,425.58048662458145,399.60609292084314,408.5971984863281,572265.0,[],[],[]
2022-11-27,412.093772285619,427.57850368527596,401.1046346532236,408.8469543457031,553958.0,[],[],[]
2022-12-04,406.5991804933722,424.5814940240901,403.7509750289373,413.59228515625,665264.0,[],[],[]
2022-12-11,419.08688995073425,427.0790118091511,413.5922753378695,413.59228515625,334238.0,[],[],[]
2022-12-18,409.59621212121215,422.33368025538266,403.1026611328125,412.09375,429081.0,[],[],[]
2022-12-25,415.5903332368827,415.5903332368827,398.172527247376,411.5942687988281,1078124.0,[],[],[]
2023-01-01,411.594243951998,415.5903332368827,399.10658203878523,409.09674072265625,316395.0,[],[],[]
2023-01-08,409.59623836776586,426.07998942402963,404.02872852281246,419.5863952636719,691767.0,[],[],[]
2023-01-15,419.5863975668853,429.5765540456603,415.66023693256193,424.08197021484375,553659.0,[],[],[]
2023-01-22,430.57554749803785,433.8223752642011,424.5814563495733,430.5755920410156,914151.0,[],[],[]
2023-01-29,435.0711158593863,445.5607354915438,427.57850192380556,442.5636901855469,656915.0,[],[],[]
2023-02-05,439.56673177083337,454.5518979847497,436.86937826722874,453.0533752441406,716469.0,[],[],[]
2023-02-12,448.05831168038503,456.12137350666865,445.56076966339214,449.057373046875,1224605.0,[],[],[]
2023-02-19,450.0563313123916,456.05044491094577,440.06619017883975,448.5578308105469,473874.0,[],[],[]
2023-02-26,437.5686852591378,449.8565608008565,431.59954835111597,433.0730895996094,622153.0,[],[],[]
2023-03-05,456.549948616915,456.549948616915,421.584414056769,435.5706787109375,1367730.0,[],[],[]
2023-03-12,436.07013762555806,447.4489354612998,423.08294677734375,423.08294677734375,1190911.0,[],[],[]
2023-03-19,425.08099365234375,436.07016152584737,413.3325461388096,421.5844421386719,817389.0,[],[],[]
2023-03-26,416.0898189521614,429.55159498038546,410.5952355086155,421.5844421386719,972171.0,[],[],[]
2023-04-02,420.58538818359375,433.4087854894256,414.5912895090109,425.3307495117188,1059719.0,[],[],[]
2023-04-09,431.5745743834163,434.8213738434767,408.7025146484375,408.7025146484375,612099.0,[],[],[]
2023-04-16,417.6959533691406,421.14043704887996,413.698862906278,416.6966857910156,494435.0,[],[],[]
2023-04-23,421.69305927340037,422.6923577235296,406.7039489746094,406.7039489746094,776408.0,[],[],[]
2023-04-30,409.7017873003897,410.70105995234184,399.70908082561726,407.7032470703125,837100.0,[],[],[]
2023-05-07,404.70544411318144,415.8033285217042,404.70544411318144,409.7017822265625,423628.0,[],[],[]
2023-05-14,410.7010447678056,416.2569929873143,402.48703254900147,412.6995849609375,607001.0,[],[],[]
2023-05-21,411.7003578772912,417.6959941570576,401.7075912327442,415.6974487304688,716979.0,[],[],[]
2023-05-28,412.6996305905856,417.85588145063065,402.7068787367245,416.6966857910156,771233.0,[],[],[]
2023-06-04,401.7075912327442,418.84512604203707,401.7075912327442,414.6981506347656,580627.0,[],[],[]
2023-06-11,415.69739772041066,420.925612435665,410.7010447678056,411.7003173828125,556290.0,[],[],[]
2023-06-18,411.7003326783697,422.192680139861,411.7003326783697,414.6981506347656,622459.0,[],[],[]
2023-06-25,415.69740276937046,415.69740276937046,398.7097727966309,399.70904541015625,354630.0,[],[],[]
2023-07-02,402.7068989318094,413.19924672444665,401.0480775083802,407.7032470703125,578437.0,[],[],[]
2023-07-09,409.7017773964422,419.69449860057193,398.7098083496094,401.7076110839844,452246.0,[],[],[]
2023-07-16,401.7076110839844,412.89747976848895,396.71326045723015,410.7010803222656,528019.0,[],[],[]
2023-07-23,410.7010347670403,416.9974974072405,403.059638802268,409.7017822265625,543906.0,[],[],[]
2023-07-30,408.702499537792,426.6894226074219,405.70968293510737,426.6894226074219,450111.0,[],[],[]
2023-08-06,420.69374614742634,427.6886540406139,409.91160586038853,412.6995849609375,477659.0,[],[],[]
2023-08-13,410.7010548661395,414.0585962973353,396.7112121582031,396.7112121582031,625420.0,[],[],[]
2023-08-20,396.7112275695801,403.55625107130504,383.7206879844961,386.718505859375,585906.0,[],[],[]
2023-08-27,386.718505859375,395.7119546493298,381.72214788320116,393.7134094238281,777293.0,[],[],[]
2023-09-03,391.7148844401042,404.46561339621746,391.7148498080801,402.7068481445313,582559.0,[],[],[]
2023-09-10,405.7046813964844,407.7032266250385,399.70903041640827,399.70904541015625,440705.0,[],[],[]
2023-09-17,403.7061462402344,414.6981301665595,390.7155873441579,412.6995849609375,812491.0,[],[],[]
2023-09-24,410.7010447678056,412.8175257830267,402.7068989318094,409.7017822265625,655024.0,[],[],[]
2023-10-01,407.7032445302938,410.7010625047812,398.709773096545,407.7032470703125,541601.0,[],[],[]
2023-10-08,407.70326221772353,411.70035302377966,400.7103511147822,405.7046813964844,983776.0,[],[],[]
2023-10-15,405.7046810913086,408.1429448706685,397.7155014254339,398.7098083496094,1285595.0,[],[],[]
2023-10-22,399.7090555315641,401.7076008092219,390.7155915855756,393.7134094238281,1240876.0,[],[],[]
2023-10-29,386.71852617827665,395.04946810143804,386.3588026521732,390.7156066894531,695510.0,[],[],[]
2023-11-05,392.7141418457031,401.11803361175856,387.627862902203,397.7105102539063,666362.0,[],[],[]
2023-11-12,402.7068481445313,405.9845121747642,396.7112627194251,405.7046813964844,668945.0,[],[],[]
2023-11-19,405.7047017415365,414.69817112832175,401.5627275259855,410.7010803222656,723363.0,[],[],[]
2023-11-26,413.6988779826337,419.32277519823646,409.7017721527988,411.7003173828125,584458.0,[],[],[]
2023-12-03,410.70105995234184,415.6974232121027,406.7039643078316,409.7017822265625,485767.0,[],[],[]
2023-12-10,410.7010347670403,417.6959533691406,406.73393155492477,417.6959533691406,455838.0,[],[],[]
2023-12-17,416.6966857910156,427.688720703125,410.0614861033591,427.688720703125,650364.0,[],[],[]
2023-12-24,428.6879577636719,436.68212890625,424.4410441021586,433.6842956542969,347822.0,[],[],[]
2023-12-31,435.6828816731771,442.6777493563565,428.7208988540721,439.679931640625,217241.0,[],[],[]
2024-01-07,437.68141163793103,441.6785021551724,424.6908874511719,424.6908874511719,503073.0,[],[],[]
2024-01-14,424.69085148402627,424.69085148402627,415.96222003307196,419.6944885253906,599794.0,[],[],[]
2024-01-21,422.69235742939594,425.0306519174317,403.70613116889973,409.7017822265625,772684.0,[],[],[]
2024-01-28,411.4005452829058,424.69085148402627,407.70322443181817,422.6922912597656,1240434.0,[],[],[]
2024-02-04,421.69301870359595,424.7008388561877,415.7573372803179,422.6922912597656,614848.0,[],[],[]
2024-02-11,422.6923319975163,435.68284079556094,422.6923319975163,428.6879577636719,699876.0,[],[],[]
2024-02-18,427.688705480239,435.6428613540296,419.6945392915988,433.6842956542969,955255.0,[],[],[]
2024-02-25,436.6821543375651,436.6821543375651,422.4305092412525,430.6864929199219,1241048.0,[],[],[]
2024-03-03,432.68505859375,438.6806945095987,424.9936558815579,431.685791015625,1209670.0,[],[],[]
2024-03-10,431.68580109482514,447.3743840446697,429.6872206629005,443.6770629882813,1304258.0,[],[],[]
2024-03-17,441.67851765950525,455.66830403645844,436.3344155011389,441.6785278320313,711002.0,[],[],[]
2024-03-24,443.677052861372,452.72845796323907,436.8919880611551,449.6726684570313,584681.0,[],[],[]
2024-03-31,449.6726684570313,454.66903143988725,440.6792249679566,449.6726684570313,1037685.0,[],[],[]
2024-04-07,453.6697695524796,459.6654052734375,440.8091358102858,450.67193603515625,830151.0,[],[],[]
2024-04-14,450.67197163899743,463.6624954828607,439.79137223490164,444.78900146484375,557425.0,[],[],[]
2024-04-21,440.79090991818526,453.78474626497984,423.79898499105576,427.7970886230469,768679.0,[],[],[]
2024-04-28,429.7961239959932,442.9018944128179,424.79848508481626,431.795166015625,1335998.0,[],[],[]
2024-05-05,441.7904170911785,444.7889945827476,429.421284938456,438.7918395996094,746078.0,[],[],[]
2024-05-12,436.7927808547768,453.78472670833617,435.8432191299367,451.7856750488281,524596.0,[],[],[]
2024-05-19,451.7856633112981,458.78235817795814,445.858496454606,453.7847290039063,1399890.0,[],[],[]
2024-05-26,454.78424072265625,457.90077364802937,446.44020271572197,450.7861328125,606955.0,[],[],[]
2024-06-02,447.78758351893094,454.7842645114143,435.7932739257813,435.7932739257813,401674.0,[],[],[]
2024-06-09,434.79372922615084,449.78663523106906,434.79372922615084,448.787109375,464045.0,[],[],[]
2024-06-16,433.79420789930555,453.78472670833617,433.79420789930555,450.7861328125,500643.0,[],[],[]
2024-06-23,452.78521728515625,464.779541015625,444.8289999328924,464.779541015625,768614.0,[],[],[]
2024-06-30,462.78048267239836,463.7799919828057,452.7851914420431,460.7814025878906,715938.0,[],[],[]
2024-07-07,461.7809284069533,464.7795058641413,454.7842476735146,460.7814025878906,471329.0,[],[],[]
2024-07-14,462.78045422601593,471.77619362285867,459.781876671123,466.778564453125,723913.0,[],[],[]
2024-07-21,470.7766797953638,471.77620565480197,453.7847290039063,453.7847290039063,646101.0,[],[],[]
2024-07-28,458.7823604784514,461.6759768036182,444.78898268479566,454.78424072265625,601547.0,[],[],[]
2024-08-04,454.7842478752136,460.78141444843413,440.7908935546875,440.7908935546875,648331.0,[],[],[]
2024-08-11,429.7961239959932,452.11952692592706,419.8088571129224,448.787109375,505139.0,[],[],[]
2024-08-18,452.78521728515625,464.779524638735,446.12837135741205,463.7799987792969,563276.0,[],[],[]
2024-08-25,467.77811869959675,468.777644594254,455.7837874702785,462.7804565429688,542230.0,[],[],[]
2024-09-01,461.7809237223486,462.900387747845,453.7847172509659,460.7814025878906,256483.0,[],[],[]
2024-09-08,459.7818908691406,462.78046841828717,444.7889919704861,448.787109375,687608.0,[],[],[]
2024-09-15,447.7875671386719,462.78046841828717,442.789938041142,459.7818908691406,717712.0,[],[],[]
2024-09-22,454.784257119162,467.9830080866333,453.9926404628184,464.779541015625,597708.0,[],[],[]
2024-09-29,464.779541015625,483.638587008848,461.78092594470013,474.7747802734375,680916.0,[],[],[]
2024-10-06,478.7728791125515,488.76813930935333,470.7766723632813,485.7695617675781,931871.0,[],[],[]
2024-10-13,472.7756983647581,493.76573994120616,471.7761954786372,482.7709655761719,1024469.0,[],[],[]
2024-10-20,470.7766718588585,487.76859697164946,470.7766718588585,484.77001953125,951834.0,[],[],[]
2024-10-27,484.77001953125,489.76764859858247,473.7152897591056,479.77239990234375,1684214.0,[],[],[]
2024-11-03,476.77383645840126,485.76956922176737,470.4458401478435,472.7757263183594,1031266.0,[],[],[]
2024-11-10,475.7743225097656,483.7704842685404,466.77854577150487,481.7714538574219,501739.0,[],[],[]
2024-11-17,478.772864650451,484.77001953125,468.7775973593914,477.7733459472656,502419.0,[],[],[]
2024-11-24,479.7723976039488,486.7690784023397,469.7771554202277,478.77288818359375,534126.0,[],[],[]
2024-12-01,470.77665587241603,484.77004560760054,470.77665587241603,472.7757263183594,548104.0,[],[],[]
2024-12-08,473.77522632910774,489.2179216024188,470.77665587241603,483.7705078125,317548.0,[],[],[]
2024-12-15,484.77002414945207,491.76673671177457,472.81569706292447,483.7705078125,991133.0,[],[],[]
2024-12-22,479.77241627143974,488.76813240051274,467.938008617669,474.7747802734375,780453.0,[],[],[]
2024-12-29,474.77477073669434,481.671492884669,474.77477073669434,477.7733459472656,250574.0,[],[],[]
2025-01-05,479.7723976039488,487.718659117179,475.77429429058253,483.7705078125,220051.0,[],[],[]
2025-01-12,482.770984225803,488.76813930935333,479.67246414881276,485.7695617675781,482180.0,[],[],[]
2025-01-19,478.7728740692139,494.76530121593936,475.77429656982423,491.7667236328125,621697.0,[],[],[]
2025-01-26,493.7657541199658,497.76386681759,485.76957284250574,494.7652893066406,701708.0,[],[],[]
2025-02-02,492.76625254545786,498.9933065892674,473.77526106804675,491.7667236328125,400567.0,[],[],[]
2025-02-09,487.7686298848178,492.7662494938548,477.77334578979617,491.7667236328125,429285.0,[],[],[]
2025-02-16,491.7667072241758,494.76528470725003,480.7719302847366,483.7705078125,789678.0,[],[],[]
2025-02-23,488.7681274414063,499.7629114942805,485.76954064002405,497.7638854980469,975396.0,[],[],[]
2025-03-02,495.7648270769817,499.7629305211509,475.77431059580505,478.77288818359375,1031933.0,[],[],[]
2025-03-09,479.7724260602679,487.76862637134315,469.7771606445313,472.7757263183594,839839.0,[],[],[]
2025-03-16,471.77619362285867,488.76813279995315,458.78236948210616,463.7799987792969,1023943.0,[],[],[]
2025-03-23,463.7799706192999,474.103092692585,459.78189534154427,463.7799987792969,1132779.0,[],[],[]
2025-03-30,468.77762067596376,479.7723858173077,460.78141392669363,464.779541015625,831776.0,[],[],[]
2025-04-06,461.78095007890107,461.78095007890107,414.8032177619215,423.7989501953125,1070241.0,['RSI_OVERSOLD'],['RSI_OVERSOLD'],[]
2025-04-13,400.8098542229762,426.79753270896083,383.8179152658924,404.9235229492188,998274.0,[],[],[]
2025-04-20,414.921630859375,421.9203031235847,399.9244579370471,408.9227600097656,327239.0,[],[],[]
2025-04-27,404.9235210883908,426.9193687167134,402.10404272163294,420.9205017089844,539959.0,[],[],[]
2025-05-04,424.9197387695313,449.9150411198648,418.72091627419087,444.9159851074219,712077.0,[],[],[]
2025-05-11,445.9157697250468,454.9140892793448,429.91880602007797,450.9148254394531,563071.0,[],[],[]
2025-05-18,461.9127484797411,473.9104996052194,455.99386982363745,467.91162109375,640134.0,[],[],[]
2025-05-25,458.91332817077637,477.9097345405727,454.5741361296581,455.9138793945313,605015.0,[],[],[]
2025-06-01,454.914096658504,468.9114534787656,453.9142854570567,459.91314697265625,718075.0,[],[],[]
2025-06-08,461.9127750686348,470.29118419555016,456.8977308695785,463.9123840332031,673745.0,[],[],[]
2025-06-15,471.9108657184829,475.9101239604335,456.6137765765775,458.913330078125,958263.0,[],[],[]
2025-06-22,459.91314697265625,468.9114476742952,453.9142666975314,458.913330078125,1005098.0,[],[],[]
2025-06-29,463.91238793192457,464.9121952056885,452.4745455816232,463.9123840332031,606810.0,[],[],[]
2025-07-06,463.9123725395698,473.9104899000658,457.9135056532823,462.9125671386719,461308.0,[],[],[]
2025-07-13,462.9125671386719,479.90935705897704,461.91275597854514,478.9095458984375,1428279.0,[],[],[]
2025-07-20,479.9093685031185,490.90728186782525,472.910690212448,489.907470703125,411945.0,[],[],[]
2025-07-27,489.9074764212863,502.5000974557479,485.9082317158064,501.90521240234375,348696.0,[],[],[]
2025-08-03,505.90446859692776,509.90369018554696,489.9074877880167,492.9069213867188,718493.0,[],[],[]
2025-08-10,494.9065417554005,505.9044649055205,490.90727431571435,493.9067077636719,929535.0,[],[],[]
2025-08-17,495.9063358191288,509.90369018554696,492.90690233635183,497.9059753417969,464019.0,[],[],[]
2025-08-24,507.90407948284985,509.9037038392464,492.40700244903564,497.9059753417969,598859.0,[],[],[]
2025-08-31,494.9065360792686,507.30417899145255,488.6077265490976,505.9044494628906,901113.0,[],[],[]
2025-09-07,501.90522378588486,506.3043580947813,497.87497533646876,498.90576171875,1189339.0,[],[],[]
2025-09-14,499.90559004217505,519.176944233175,499.10474641291256,517.9021606445312,419589.0,[],[],[]
2025-09-21,519.9018327579942,531.8995130134351,515.902587890625,527.9002685546875,1091740.0,[],[],[]
2025-09-28,531.8995630532617,533.899169921875,523.9010620117188,523.9010620117188,547766.0,[],[],[]
2025-10-05,525.9006691839462,555.8949849076705,525.0608009607076,549.8961181640625,2431421.0,[],[],[]
2025-10-12,549.8961524140063,565.8931429736502,545.8969076691772,545.8969116210938,1284659.0,[],[],[]
2025-10-19,541.8976291725852,551.8957404119318,531.8995589071245,535.8988037109375,1175832.0,[],[],[]
2025-10-26,529.8999325259701,557.8946533203125,529.8999325259701,557.8946533203125,782067.0,[],[],[]
2025-11-02,559.8942375861877,577.8908847741914,556.194924168839,571.8919677734375,554946.0,[],[],[]
2025-11-09,577.8908461726917,581.8900907828832,559.8942375861877,561.8938598632812,905068.0,[],[],[]
2025-11-16,561.8938827245058,579.8904684777874,555.895037948876,569.8923950195312,755332.0,[],[],[]
2025-11-23,575.8912508252641,575.8912508252641,542.2975893720877,551.895751953125,932390.0,[],[],[]
2025-11-30,555.8950080733867,565.8931274414062,549.896141079789,565.8931274414062,506936.0,[],[],[]
2025-12-07,559.8942375861877,569.8923878003192,551.895751953125,557.8946533203125,1235560.0,[],[],[]
2025-12-14,559.894287109375,567.8927769252232,551.8957972935268,555.89501953125,727961.0,[],[],[]
2025-12-21,555.895030906978,561.8938981469814,545.6369130123203,555.89501953125,909901.0,[],[],[]
2025-12-28,559.894275733647,563.8934738991477,549.8961181640625,549.8961181640625,333230.0,[],[],[]
2026-01-04,559.894287109375,575.2914000133804,547.8965523856027,569.8923950195312,578055.0,[],[],[]
2026-01-11,573.8916130065918,585.8893317653708,568.2126928697107,581.8900756835938,1101244.0,[],[],[]
2026-01-18,581.8900756835938,589.8886108398438,575.8912089239691,583.8897094726562,968789.0,[],[],[]
2026-01-25,577.8908539339137,593.8878325895238,575.891220301798,585.8893432617188,540130.0,[],[],[]
2026-02-01,583.889697936802,595.8874280774916,581.3791858671918,585.8893432617188,547054.0,[],[],[]
2026-02-08,581.8900723843961,599.8867228879767,581.8900723843961,593.8878173828125,620304.0,[],[],[]
2026-02-15,595.8874396635628,615.8836589080609,591.8881951020622,601.8863525390625,569360.0,[],[],[]
2026-02-22,601.8863258361816,621.2827102315849,599.8867301053779,617.88330078125,513687.0,[],[],[]
2026-03-01,615.8836898311492,651.2749930477794,613.8840674615676,647.8776245117188,687566.0,[],[],[]
2026-03-08,653.8764763808832,657.8757208847418,589.8885955300219,597.8870849609375,1655714.0,[],[],[]
2026-03-15,593.8878209362291,623.8821833376024,573.3577022742518,603.8859252929688,556174.0,[],[],[]
2026-03-22,593.8878139470587,629.8810622271369,583.8897323089392,587.8889770507812,1056729.0,[],[],[]
2026-03-29,583.8897094726562,597.0872288092984,565.8931274414062,565.8931274414062,789073.0,[],[],[]
2026-04-05,553.8953707549072,595.8874432289437,553.8953707549072,571.8919677734375,584950.0,[],[],[]
2026-04-12,559.8942565917969,617.8833104025554,559.8942565917969,592.0,630352.0,[],[],[]
2026-04-19,582.0,630.0,582.0,629.0,949900.0,[],[],[]
2026-04-26,623.0,629.0,605.0,616.0,1524512.0,[],[],[]
2026-05-03,624.0,634.0,601.0,623.0,996781.0,[],[],[]
2026-05-10,597.0,680.0,597.0,672.0,744178.0,[],[],[]
2026-05-17,669.0,685.0,644.7999877929688,673.0,1066219.0,[],[],[]
2026-05-24,670.0,689.9299926757812,649.8900146484375,682.0,570214.0,[],[],[]
2026-05-31,690.0,717.0,679.0,708.0,493906.0,[],[],[]
2026-06-07,717.0,730.0,690.0,691.0,1149790.0,[],[],[]
2026-06-14,688.0,690.0,657.0070190429688,683.0,574263.0,[],[],[]
2026-06-21,689.0,720.0,688.0,720.0,857910.0,[],[],[]
2026-06-28,709.0,738.0,685.0,695.0,646111.0,[],[],[]
2026-07-05,708.0,710.0,684.0,702.0,344988.0,[],[],[]
2026-07-12,696.0,710.0,667.0,691.0,423579.0,[],[],[]
2026-07-19,682.0,686.0,644.0,653.0,909715.0,[],[],[]
2026-07-26,654.0,680.0,645.0,660.0,1063949.0,[],[],[]
2026-08-02,684.0,700.0,641.0,690.0,2018674.0,[],[],[]
2026-08-09,694.0,714.0,683.9910278320312,697.0,651955.0,[],[],[]
2026-08-16,697.0,715.0,696.0399780273438,708.0,842913.0,[],[],[]
2026-08-23,716.0,716.0,685.0,704.0,490486.0,[],[],[]
2026-08-30,701.0,712.0,686.0,712.0,553174.0,[],[],[]
2026-09-06,710.0,716.0,687.0,706.0,717176.0,[],[],[]
2026-09-13,713.0,724.0,693.7559814453125,704.0,847887.0,[],[],[]
2026-09-20,698.0,717.0,680.0,696.0,681413.0,[],[],[]
2026-09-27,716.0,746.0,703.2139892578125,726.0040283203125,1250525.0,[],[],[]
