Date,Open,High,Low,Close,Volume,signal,bull_patterns,bear_patterns
2025-12-09,555.8950422014509,561.893909563337,553.8954197474889,559.894287109375,197673.0,[],[],[]
2025-12-10,557.894664655413,563.8935320172991,555.8950422014509,559.894287109375,109207.0,[],[],[]
2025-12-11,557.894664655413,567.8927769252232,555.3991641478347,559.894287109375,202195.0,[],[],[]
2025-12-12,561.8938866484937,567.8927537657374,555.89501953125,555.89501953125,119471.0,[],[],[]
2025-12-15,555.895030906978,561.8938981469814,550.456055501763,557.8946533203125,142793.0,[],[],[]
2025-12-16,549.8961563948747,555.895023555546,545.8969116210938,545.8969116210938,280040.0,[],[],[]
2025-12-17,553.8954126956689,559.8942799811816,545.896922981652,547.8965454101562,203727.0,[],[],[]
2025-12-18,547.8964959161932,552.4606361379,545.6369130123203,549.8961181640625,116023.0,[],[],[]
2025-12-19,555.89501953125,557.294779601393,546.8967188553844,555.89501953125,167318.0,[],[],[]
2025-12-22,559.894275733647,559.894275733647,551.8957860803091,557.8946533203125,145705.0,[],[],[]
2025-12-23,561.8938866484937,561.8938866484937,551.8957747864208,555.89501953125,37420.0,[],[],[]
2025-12-24,563.8934738991477,563.8934738991477,549.8961181640625,549.8961181640625,150105.0,[],[],[]
2025-12-29,559.894287109375,563.8935320172991,547.8965523856027,559.894287109375,82736.0,[],[],[]
2025-12-30,559.8942375861877,563.8934821403748,556.8548336935121,561.8938598632812,190160.0,[],[],[]
2025-12-31,561.893909563337,565.8931544712611,558.4135486192203,559.894287109375,39943.0,[],[],[]
2026-01-02,567.8927725808662,575.2914000133804,559.0144440713028,569.8923950195312,265216.0,[],[],[]
2026-01-05,573.8916130065918,579.8904800415039,568.2126928697107,575.8912353515625,216157.0,[],[],[]
2026-01-06,577.8908425945125,585.8893317653708,573.6316373472497,583.8897094726562,416083.0,[],[],[]
2026-01-07,581.8900756835938,585.8893201900102,576.7730613770059,581.8900756835938,164994.0,[],[],[]
2026-01-08,579.8905029296875,583.9307556592184,575.8912580818966,579.8905029296875,251370.0,[],[],[]
2026-01-09,579.8904534303855,581.9900323868028,578.9946265664605,581.8900756835938,52640.0,[],[],[]
2026-01-12,581.8900756835938,585.8893201900102,575.8912089239691,581.8900756835938,95141.0,[],[],[]
2026-01-13,581.8900871799417,585.8893317653708,577.8908425945125,583.8897094726562,153921.0,[],[],[]
2026-01-14,577.8908311771773,583.889697936802,577.8908311771773,581.8900756835938,327476.0,[],[],[]
2026-01-15,581.8901212013374,589.8886108398438,579.6305381146781,589.8886108398438,277568.0,[],[],[]
2026-01-16,583.8897094726562,587.8889540580853,579.890464887227,583.8897094726562,114683.0,[],[],[]
2026-01-19,577.8908539339137,587.88896559367,577.8908539339137,585.8893432617188,65296.0,[],[],[]
2026-01-20,575.8912353515625,583.8897247314453,575.8912353515625,575.8912353515625,95733.0,[],[],[]
2026-01-21,575.891220301798,585.8893317653708,575.891220301798,583.8897094726562,90379.0,[],[],[]
2026-01-22,589.8885994217022,590.6704341939263,581.8901099380181,587.8889770507812,175026.0,[],[],[]
2026-01-23,589.8885879256212,593.8878325895238,583.8897209297675,585.8893432617188,113696.0,[],[],[]
2026-01-26,583.889697936802,591.8881869496349,581.3791858671918,581.8900756835938,89084.0,[],[],[]
2026-01-27,583.8897436109639,591.2283847046921,583.8897436109639,589.8886108398438,119255.0,[],[],[]
2026-01-28,591.88818359375,595.8874280774916,587.8889391100084,591.88818359375,86323.0,[],[],[]
2026-01-29,593.8878325895238,593.8878325895238,583.1028822350598,585.8893432617188,195555.0,[],[],[]
2026-01-30,589.8885879256212,589.8885879256212,583.0898842017132,585.8893432617188,56837.0,[],[],[]
2026-02-02,581.8900723843961,591.88818359375,581.8900723843961,591.88818359375,98837.0,[],[],[]
2026-02-03,595.8874280774916,599.8866725612331,591.88818359375,591.88818359375,135405.0,[],[],[]
2026-02-04,593.8878556590969,599.8867228879767,585.8893660205905,589.8886108398438,126085.0,[],[],[]
2026-02-05,585.8893282598117,594.8816482075287,585.8893282598117,593.8878173828125,189266.0,[],[],[]
2026-02-06,585.8893282598117,597.8870619443129,585.8893282598117,593.8878173828125,70711.0,[],[],[]
2026-02-09,595.8874396635628,601.8863065058133,591.8881951020622,593.8878173828125,108844.0,[],[],[]
2026-02-10,597.8871076716932,607.8852198401163,595.8874852380087,601.8863525390625,81932.0,[],[],[]
2026-02-11,605.8855590820312,611.4844771327432,599.6667629979772,605.8855590820312,137111.0,[],[],[]
2026-02-12,609.8847921005148,615.8836589080609,603.8859252929688,603.8859252929688,147321.0,[],[],[]
2026-02-13,599.8867301053779,609.8848422738008,597.959115559625,601.8863525390625,94152.0,[],[],[]
2026-02-16,601.8863258361816,609.8848152160645,601.8863258361816,607.8851928710938,75916.0,[],[],[]
2026-02-17,599.8867301053779,609.8848422738008,599.8867301053779,601.8863525390625,212538.0,[],[],[]
2026-02-18,605.8855555150416,615.8836669921875,605.8855555150416,615.8836669921875,66323.0,[],[],[]
2026-02-19,619.8829501282935,621.2827102315849,611.8844604492188,611.8844604492188,60600.0,[],[],[]
2026-02-20,613.8840561159992,619.8829231138754,609.8848114507484,617.88330078125,98310.0,[],[],[]
2026-02-23,615.8836898311492,621.8825569398941,613.8840674615676,619.8829345703125,102116.0,[],[],[]
2026-02-24,621.8825417293865,627.8814086914062,617.88329708804,627.8814086914062,105675.0,[],[],[]
2026-02-25,627.8814086914062,636.3798035542677,627.4184834312553,627.8814086914062,80285.0,[],[],[]
2026-02-26,637.8795319087922,639.879154265873,629.3811368911985,629.8810424804688,103552.0,[],[],[]
2026-02-27,639.879135320216,651.2749930477794,629.8180474449915,647.8776245117188,295938.0,[],[],[]
2026-03-02,653.8764763808832,657.8757208847418,645.877987373166,655.8760986328125,663735.0,[],[],[]
2026-03-03,627.8814240486391,647.8776477444557,607.9652023342228,619.8829345703125,315211.0,[],[],[]
2026-03-04,607.885189118123,627.881412444377,605.8855667854975,617.88330078125,337821.0,[],[],[]
2026-03-05,625.8817821540455,631.8806490756498,605.8855590820312,605.8855590820312,191794.0,[],[],[]
2026-03-06,611.8844414650397,621.8825532536841,589.8885955300219,597.8870849609375,147153.0,[],[],[]
2026-03-09,593.8878209362291,593.8878209362291,573.3577022742518,583.8897094726562,171073.0,[],[],[]
2026-03-10,599.8867259306066,611.8844604492188,591.7712539462738,611.8844604492188,84626.0,[],[],[]
2026-03-11,623.8821833376024,623.8821833376024,607.8852042776639,609.8848266601562,47447.0,[],[],[]
2026-03-12,607.885196749582,621.8825532536841,591.8882178877508,597.8870849609375,177170.0,[],[],[]
2026-03-13,601.8863030237868,615.8836589080609,590.0835399027753,603.8859252929688,75858.0,[],[],[]
2026-03-16,593.8878139470587,613.8840366388788,593.8878139470587,603.8859252929688,113957.0,[],[],[]
2026-03-17,611.8844604492188,629.8810622271369,602.1463090287266,611.8844604492188,247362.0,[],[],[]
2026-03-18,605.8855590820312,619.8829152324412,604.3858423516301,605.8855590820312,442920.0,[],[],[]
2026-03-19,605.8855627687186,611.8844297268247,587.8889618944002,595.887451171875,115500.0,[],[],[]
2026-03-20,593.8878441635443,603.8859560181494,583.8897323089392,587.8889770507812,136990.0,[],[],[]
2026-03-23,583.8897094726562,597.0872288092984,567.8927311309396,583.8897094726562,273792.0,[],[],[]
2026-03-24,585.889347076416,596.1743919148576,575.8912353515625,575.8912353515625,74472.0,[],[],[]
2026-03-25,579.8904501425253,591.88818359375,577.6798692187042,591.88818359375,156269.0,[],[],[]
2026-03-26,589.8885800032666,589.8885800032666,571.8919792574042,573.8916015625,161190.0,[],[],[]
2026-03-27,567.8927497998565,585.8893510259082,565.8931274414062,565.8931274414062,123350.0,[],[],[]
2026-03-30,553.8953707549072,572.9287627065071,553.8953707549072,561.8938598632812,172897.0,[],[],[]
2026-03-31,555.8950422014509,573.8916442871093,555.8950422014509,559.894287109375,141931.0,[],[],[]
2026-04-01,575.891220301798,595.8874432289437,569.592422284473,583.8897094726562,134368.0,[],[],[]
2026-04-02,565.8931009786112,583.88970136309,565.8931009786112,571.8919677734375,135754.0,[],[],[]
2026-04-07,559.8942565917969,584.8895359039307,559.8942565917969,575.8912353515625,153366.0,[],[],[]
2026-04-08,599.8867091286945,617.8833104025554,580.8902966729526,608.885009765625,236418.0,[],[],[]
2026-04-09,586.0,597.0,581.0,589.0,102910.0,[],[],[]
2026-04-10,588.0,599.9630126953125,585.4509887695312,592.0,137658.0,[],[],[]
2026-04-13,582.0,591.0,582.0,586.0,77365.0,[],[],[]
2026-04-14,587.0,603.0,586.0,603.0,127667.0,[],[],[]
2026-04-15,608.0,610.0,598.0,605.0,129284.0,[],[],[]
2026-04-16,610.0,619.0,606.0499877929688,610.0,416411.0,[],[],[]
2026-04-17,608.0,630.0,604.4500122070312,629.0,199173.0,[],[],[]
2026-04-20,623.0,629.0,605.0,608.0,184181.0,[],[],[]
2026-04-21,610.0,624.0,610.0,619.0,159276.0,[],[],[]
2026-04-22,616.0,623.0,611.7930297851562,620.0,211508.0,[],[],[]
2026-04-23,620.0,620.0,613.2000122070312,614.0,325530.0,[],[],[]
2026-04-24,619.0,619.4099731445312,610.0,616.0,644017.0,[],[],[]
2026-04-27,624.0,625.0,607.0,622.0,153018.0,[],[],[]
2026-04-28,615.0,630.0,613.0,621.0,354560.0,[],[],[]
2026-04-29,622.0,634.0,616.0,619.0,240274.0,[],[],[]
2026-04-30,619.0,628.0,601.0,626.0,126929.0,[],[],[]
2026-05-01,627.0,634.0,614.9600219726562,623.0,122000.0,[],[],[]
2026-05-05,597.0,642.3579711914062,597.0,636.0,154464.0,[],[],[]
2026-05-06,645.0,672.0,641.0,666.0,229481.0,[],[],[]
2026-05-07,680.0,680.0,665.0,672.0,110055.0,[],[],[]
2026-05-08,639.0,674.0,639.0,672.0,250178.0,[],[],[]
2026-05-11,669.0,673.0,644.7999877929688,669.0,169425.0,[],[],[]
2026-05-12,668.0,675.0,664.5009765625,668.0,543189.0,[],[],[]
2026-05-13,672.0,684.0,668.0,678.0,120242.0,[],[],[]
2026-05-14,673.0,685.0,666.0,680.0,84367.0,[],[],[]
2026-05-15,675.0,680.0,665.0,673.0,148996.0,[],[],[]
2026-05-18,670.0,679.0,658.0,659.0,141994.0,[],[],[]
2026-05-19,660.0,660.0,650.4990234375,655.0,140178.0,[],[],[]
2026-05-20,655.0,671.0,649.8900146484375,667.0,123842.0,[],[],[]
2026-05-21,664.0,674.0,663.0,671.0,85436.0,[],[],[]
2026-05-22,677.0,689.9299926757812,663.9000244140625,682.0,78764.0,[],[],[]
2026-05-26,690.0,707.0,679.0,701.0,136875.0,[],[],[]
2026-05-27,709.0,716.9500122070312,703.0700073242188,706.0,122129.0,[],[],[]
2026-05-28,700.0,715.0,695.0,711.0,98772.0,[],[],[]
2026-05-29,715.0,717.0,707.0,708.0,136130.0,[],[],[]
2026-06-01,717.0,723.0,709.8820190429688,719.0,180783.0,[],[],[]
2026-06-02,720.0,730.0,714.719970703125,730.0,434797.0,[],[],[]
2026-06-03,730.0,730.0,706.0,716.0,312700.0,[],[],[]
2026-06-04,706.0,719.0,705.0,708.0,155360.0,[],[],[]
2026-06-05,705.0,710.0,690.0,691.0,66150.0,[],[],[]
2026-06-08,688.0,689.0,675.0,679.0,97548.0,[],[],[]
2026-06-09,675.0,690.0,671.0,671.0,96984.0,[],[],[]
2026-06-10,670.0,679.0,657.0070190429688,670.0,154323.0,[],[],[]
2026-06-11,667.0,679.0,660.9000244140625,666.0,113840.0,[],[],[]
2026-06-12,671.0,687.0,671.0,683.0,111568.0,[],[],[]
2026-06-15,689.0,703.0,688.0,703.0,128802.0,[],[],[]
2026-06-16,703.0,705.0,692.0,693.0,206894.0,[],[],[]
2026-06-17,708.0,708.0,693.4400024414062,697.0,129167.0,[],[],[]
2026-06-18,710.0,719.0,706.0499877929688,718.0,214857.0,[],[],[]
2026-06-19,708.0,720.0,708.0,720.0,178190.0,[],[],[]
2026-06-22,709.0,738.0,709.0,732.0,82609.0,[],[],[]
2026-06-23,700.0,714.0819702148438,695.3389892578125,701.0,272967.0,[],[],[]
2026-06-24,700.0,706.7949829101562,691.0,702.0,91755.0,[],[],[]
2026-06-25,704.0,719.0,702.7999877929688,710.0,130846.0,[],[],[]
2026-06-26,698.0,703.0,685.0,695.0,67934.0,[],[],[]
2026-06-29,708.0,708.0,689.0,690.0,62421.0,[],[],[]
2026-06-30,703.0,710.0,692.3709716796875,702.0,59949.0,[],[],[]
2026-07-01,710.0,710.0,700.0,705.0,69919.0,[],[],[]
2026-07-02,702.0,703.0,684.0,693.0,82504.0,[],[],[]
2026-07-03,690.0,705.0,690.0,702.0,70195.0,[],[],[]
2026-07-06,696.0,710.0,692.0,703.0,67877.0,[],[],[]
2026-07-07,698.0,698.0,682.719970703125,685.0,90879.0,[],[],[]
2026-07-08,694.0,694.0,667.0,680.0,73365.0,[],[],[]
2026-07-09,683.0,699.0,682.0,688.0,102055.0,[],[],[]
2026-07-10,691.0,699.0,681.9000244140625,691.0,89403.0,[],[],[]
2026-07-13,682.0,686.0,670.75,674.0,74799.0,[],[],[]
2026-07-14,674.0,680.0,667.75,672.0,208486.0,[],[],[]
2026-07-15,679.0,682.0,668.6439819335938,672.0,456134.0,[],[],[]
2026-07-16,674.0,680.0,668.0020141601562,671.0,90191.0,[],[],[]
2026-07-17,656.0,669.0,644.0,653.0,80105.0,[],[],[]
2026-07-20,654.0,662.0,646.4000244140625,662.0,206402.0,[],[],[]
2026-07-21,670.0,680.0,658.156982421875,675.0,77445.0,[],[],[]
2026-07-22,670.0,679.0,660.0,671.0,126935.0,[],[],[]
2026-07-23,680.0,680.0,665.0,670.0,476951.0,[],[],[]
2026-07-24,645.0,673.4400024414062,645.0,660.0,176216.0,[],[],[]
2026-07-27,684.0,687.0,661.0,669.0,376886.0,[],[],[]
2026-07-28,648.0,662.0,644.0,650.0,84454.0,[],[],[]
2026-07-29,641.0,660.0,641.0,660.0,419392.0,[],[],[]
2026-07-30,654.0,667.0,648.8400268554688,667.0,963731.0,[],[],[]
2026-07-31,680.0,700.0,680.0,690.0,174211.0,[],[],[]
2026-08-03,694.0,701.0,683.9910278320312,695.0,96619.0,[],[],[]
2026-08-04,706.0,706.0,692.0,704.0,97744.0,[],[],['hanging_man']
2026-08-05,713.0,714.0,702.9190063476562,709.0,113386.0,[],[],['hanging_man']
2026-08-06,702.0,709.0,700.0,704.0,118931.0,[],[],[]
2026-08-07,701.0,711.0,697.0,697.0,225275.0,[],[],[]
2026-08-10,697.0,698.0,696.4400024414062,698.0,124266.0,[],[],[]
2026-08-11,700.0,700.0,696.0399780273438,700.0,272682.0,[],[],[]
2026-08-12,715.0,715.0,697.7230224609375,703.0,218507.0,[],[],[]
2026-08-13,714.0,714.0,699.0910034179688,710.0,171360.0,[],[],[]
2026-08-14,705.0,715.0,699.0,708.0,56098.0,[],[],[]
2026-08-17,716.0,716.0,696.0,716.0,145726.0,[],[],['hanging_man']
2026-08-18,701.0,710.0,690.0,693.0,62708.0,[],[],[]
2026-08-19,688.0,699.2260131835938,685.0,697.0,86514.0,[],[],[]
2026-08-20,697.0,698.0,685.0,688.0,76509.0,[],[],[]
2026-08-21,688.0,704.0,686.052978515625,704.0,119029.0,[],[],[]
2026-08-24,701.0,701.0,686.2139892578125,695.0,102335.0,[],[],[]
2026-08-25,688.0,703.0,686.0,700.0,61377.0,[],[],[]
2026-08-26,704.0,705.0,692.8400268554688,700.0,127883.0,[],[],[]
2026-08-27,687.0,706.0,687.0,705.0,116767.0,[],[],[]
2026-08-28,702.0,712.0,693.60302734375,712.0,144812.0,[],[],[]
2026-09-01,710.0,716.0,699.0,699.0,146499.0,[],[],[]
2026-09-02,708.0,708.0,687.0,690.0,241686.0,[],[],[]
2026-09-03,696.0,699.0,688.47998046875,695.0,174137.0,[],[],[]
2026-09-04,706.0,714.0,698.1439819335938,706.0,154854.0,[],[],[]
2026-09-07,713.0,719.2570190429688,705.3499755859375,712.0,123909.0,[],[],[]
2026-09-08,710.0,724.0,693.7559814453125,714.0,99358.0,[],[],[]
2026-09-09,710.0,724.0,707.5579833984375,711.0,158663.0,[],[],[]
2026-09-10,705.0,710.8519897460938,696.0,705.0,308562.0,[],[],[]
2026-09-11,700.0,717.0,700.0,704.0,157395.0,[],[],[]
2026-09-14,698.0,717.0,686.0,691.0,263246.0,[],[],[]
2026-09-15,688.0,705.0,680.0,684.0,68020.0,[],[],[]
2026-09-16,700.0,705.0,681.0,700.0,67077.0,[],[],[]
2026-09-17,680.0,706.0,680.0,695.0,160441.0,[],[],[]
2026-09-18,690.0,708.0,690.0,696.0,122629.0,[],[],[]
2026-09-21,716.0,728.0,703.2139892578125,728.0,333969.0,[],[],[]
2026-09-22,730.0,741.0,724.0,730.0,290615.0,[],[],[]
2026-09-23,730.0,734.0,718.0,722.0,296320.0,[],[],[]
2026-09-24,746.0,746.0,717.0,726.0,236732.0,[],[],[]
