Date,Open,High,Low,Close,Volume,signal,bull_patterns,bear_patterns
2024-09-27,154.5509862737545,157.34631621260434,154.14191686210978,155.72950744628906,354300,[],[],[]
2024-09-30,155.14512315625234,156.2457242868971,154.7944900883672,156.02171325683594,289800,[],[],[]
2024-10-01,156.3626097407792,156.3626097407792,154.91139028594895,155.8074493408203,192200,[],[],[]
2024-10-02,155.70028846125726,155.94378321896212,153.84973424739667,154.61917114257812,186900,[],[],[]
2024-10-03,153.87896779578838,156.28469743108852,152.56409002818182,154.8042449951172,367000,[],[],[]
2024-10-04,155.77820432469008,157.26839101232096,155.18407653760102,156.40155029296875,350500,[],[],[]
2024-10-07,155.24251230852914,155.486007058675,153.89841653196711,154.56072998046875,223300,[],[],[]
2024-10-08,154.16140851662,154.88215839036292,153.0121203289736,154.541259765625,205900,[],[],[]
2024-10-09,154.22958607287964,155.8853474593437,154.00556019446944,155.54444885253906,152600,[],[],[]
2024-10-10,153.93739633476548,155.23279029262568,153.93739633476548,155.0769500732422,168500,[],[],[]
2024-10-11,156.7521704793874,157.70666566406467,156.17752648077732,157.34629821777344,194400,[],[],[]
2024-10-14,160.6968029731812,163.394714143239,159.20661626974442,162.8395538330078,469700,[],[],[]
2024-10-15,162.96617430440529,165.2452816100452,162.15776994657773,164.290771484375,397300,[],[],[]
2024-10-16,164.31025487859057,164.79724438022347,161.6025944384509,161.71946716308594,330000,[],[],[]
2024-10-17,162.63502251682706,163.94016577814568,162.18700046287847,163.52134704589844,238200,[],[],[]
2024-10-18,164.69986730082573,164.69986730082573,163.414207789957,164.24209594726562,171500,[],[],['hanging_man']
2024-10-21,164.0862524476999,164.1057361900711,161.97271968352462,162.00193786621094,217900,[],[],[]
2024-10-22,161.40781358966652,162.0408940440798,160.52148906409494,161.49546813964844,228500,[],[],[]
2024-10-23,162.17724687078498,163.6089972685699,161.83636311905678,163.28758239746094,318100,[],[],[]
2024-10-24,164.38138841449273,164.3911490539813,162.26215240803288,162.65280151367188,547300,[],[],[]
2024-10-25,164.96734120598276,165.87558734575057,160.75819577884172,164.95758056640625,518900,[],[],[]
2024-10-28,165.92439581087592,167.3990718969887,164.81107199246878,165.14312744140625,350000,[],[],['shooting_star']
2024-10-29,165.07475181943673,165.52399452591067,163.7172779631245,164.75247192382812,338100,[],[],[]
2024-10-30,164.41067173516717,166.21737340703038,164.18604292971634,165.0747528076172,290300,[],[],[]
2024-10-31,165.13333821190827,166.29549493250488,163.93212403677143,163.98095703125,329900,[],[],[]
2024-11-01,164.16654807832185,166.98892289403057,163.69776911458624,165.44589233398438,316300,[],[],[]
2024-11-04,165.66072177477935,166.5787284860389,164.24463934900223,164.32276916503906,191800,[],[],[]
2024-11-05,163.81495853194275,166.37364684373878,163.81495853194275,166.32481384277344,206200,[],[],[]
2024-11-06,171.05157984831254,171.05157984831254,168.1120175664359,169.108154296875,264100,[],[],[]
2024-11-07,170.12378096512896,171.35430696476374,169.47922114643825,170.62185668945312,412300,[],[],[]
2024-11-08,170.61209897781401,173.6786238548333,170.40702122427004,171.6472930908203,309200,[],[],[]
2024-11-11,172.19418764538844,173.86416596467407,171.78400236870633,172.0281524658203,189100,[],[],['shooting_star']
2024-11-12,172.51646680557812,173.09267240733516,170.85624898942092,171.5886993408203,179800,[],[],[]
2024-11-13,171.3933868408203,172.26256068514002,170.95391959849974,171.3933868408203,168400,[],[],[]
2024-11-14,171.05155682058597,171.67658049046,169.8405818424337,170.02613830566406,198200,[],[],[]
2024-11-15,168.92257425336157,169.69408202115162,162.28168847937133,162.59420776367188,620500,[],[],[]
2024-11-18,162.49655239968402,163.8930988274997,160.4847578059515,162.78953552246094,384400,[],[],[]
2024-11-19,162.52583437609178,163.74658485803732,162.31098109913023,162.99459838867188,287600,[],[],[]
2024-11-20,163.09226951003035,164.9868767017905,161.773852987427,164.7817840576172,221800,[],[],[]
2024-11-21,164.74270472490508,166.24666260945034,163.814937433016,165.9048614501953,205100,[],[],[]
2024-11-22,166.19783911675128,168.04362806955587,166.19783911675128,167.49671936035156,241600,[],[],[]
2024-11-25,168.02409483029683,169.94799873062775,167.7213511031337,168.46356201171875,270100,[],[],[]
2024-11-26,168.81516282359394,168.81516282359394,167.15494495593342,168.01434326171875,140300,[],[],[]
2024-11-27,168.62956976438952,169.81126266839826,167.5064853950592,167.71156311035156,167200,[],[],[]
2024-11-29,168.55144377295503,169.43039299219728,168.0631436183998,168.9127960205078,117300,[],[],[]
2024-12-02,168.9323215272417,169.0592843391612,166.8423974094864,168.71746826171875,170900,[],[],[]
2024-12-03,169.39130847544556,169.39130847544556,167.08653131531918,168.36587524414062,160100,[],[],[]
2024-12-04,167.86786575854285,168.8444662958319,167.02798870040462,168.55148315429688,173400,[],[],[]
2024-12-05,167.98503908384095,168.40498502885572,166.5396745813458,167.09634399414062,245000,[],[],[]
2024-12-06,167.5846236743002,168.61004210605205,166.85217342205542,167.1451416015625,209200,[],[],[]
2024-12-09,167.54556559711838,169.4108759749143,166.24668525088177,166.7935791015625,301700,[],[],[]
2024-12-10,166.72521015388972,167.3599944100707,164.25441250187913,166.9107666015625,287000,[],[],[]
2024-12-11,167.85808411107303,170.02613822467129,167.73112128855698,168.27801513671875,418600,[],[],[]
2024-12-12,167.65298456324717,168.5612306607672,166.78381082569527,167.62368774414062,178300,[],[],[]
2024-12-13,166.9107848371899,166.99867530040407,165.8462939336225,166.21739196777344,153200,[],[],[]
2024-12-16,166.15881199108833,166.93031984565312,163.66847768302608,163.70755004882812,236100,[],[],[]
2024-12-17,162.99458751218418,163.00436305250057,159.02959259568405,159.27374267578125,511900,[],[],[]
2024-12-18,159.85973142770067,160.5726455898807,154.214981970008,154.50796508789062,468600,['RSI_OVERSOLD'],['RSI_OVERSOLD'],[]
2024-12-19,154.8009500563107,157.78936030002515,154.52750309049244,155.15252685546875,404700,[],[],[]
2024-12-20,155.00601023435632,156.0412042310304,153.7852597851201,154.4786376953125,730200,[],[],[]
2024-12-23,153.49229809203675,155.1818127767919,153.28722033295332,154.8107147216797,194900,[],[],[]
2024-12-24,155.06460748481138,155.6896311333145,154.2247305600973,155.62127685546875,100500,[],[],[]
2024-12-26,154.71303442348506,155.89472747069453,154.71303442348506,155.1329803466797,164500,[],[],[]
2024-12-27,154.12707581536193,155.84588708263334,153.92198318319998,154.4493408203125,145000,[],[],[]
2024-12-30,153.32626257404377,153.80480213396478,151.3730617769222,153.0625762939453,221700,[],[],[]
2024-12-31,153.59970058644706,154.54700411025723,152.52543424962974,153.42391967773438,317100,[],[],[]
2025-01-02,153.96102932277924,154.41027201167452,149.85931109671645,150.55270385742188,239400,[],[],[]
2025-01-03,150.43553065073638,152.07622719806142,149.29290988290282,151.8613739013672,250700,[],[],[]
2025-01-06,150.39648145810642,151.02150520056398,147.89638648827628,149.3417510986328,369000,[],[],[]
2025-01-07,152.27153842764793,152.40826189282907,149.0292327240345,149.8397979736328,361200,[],[],[]
2025-01-08,149.3124422881475,150.6503801368408,148.5311589473614,150.54295349121094,228600,[],[],[]
2025-01-10,149.14643028639964,150.68946087220502,149.00970681179618,149.85934448242188,350800,[],[],[]
2025-01-13,149.35151938743235,151.0801065846784,149.35151938743235,150.2890625,349300,[],[],[]
2025-01-14,151.18751987696325,151.8125435961652,149.88863943358058,150.99220275878906,196900,[],[],[]
2025-01-15,152.46686153360938,153.2481448947014,150.56249358589434,151.9199676513672,206100,[],[],[]
2025-01-16,152.24223989964935,153.49228725350105,151.67580986403843,152.7500762939453,346300,[],[],[]
2025-01-17,153.29697420180517,154.25403847264764,152.03715127326387,152.43756103515625,231900,[],[],[]
2025-01-21,153.0528143054371,156.50997312910235,153.0528143054371,156.0900421142578,270900,[],[],[]
2025-01-22,155.6114801759999,156.98849010418607,154.63487992651818,155.34780883789062,280000,[],[],[]
2025-01-23,154.7521036088612,156.070505187951,154.03917459835165,155.88494873046875,149800,[],[],[]
2025-01-24,155.91424200320077,156.71506145375167,153.54111027377883,154.59584045410156,329600,[],[],[]
2025-01-27,154.54699783386062,155.20131824817142,152.98443138953712,154.75209045410156,317000,[],[],[]
2025-01-28,153.88294176224863,156.59788985115384,153.88294176224863,154.71304321289062,204300,[],[],[]
2025-01-29,155.0646061385479,155.10367849846844,152.95514575501196,153.43368530273438,265800,[],[],[]
2025-01-30,154.1270963205914,154.96695843542625,152.9161063496536,154.42984008789062,274200,[],[],[]
2025-01-31,154.20518277543422,155.66032259995123,153.09185901964062,153.4727325439453,834100,[],[],[]
2025-02-03,150.9628742010352,153.08209503629564,150.53316769033947,152.33010864257812,364600,[],[],[]
2025-02-04,152.43756037769683,154.75211357303183,152.43756037769683,154.0098876953125,302400,[],[],[]
2025-02-05,155.01866189479728,156.3702319730873,154.52896432375118,155.05784606933594,262600,[],[],[]
2025-02-06,156.54649741836073,156.54649741836073,152.16860045521503,153.22634887695312,446600,[],[],[]
2025-02-07,154.37226642227148,154.64649588233073,139.11328743464438,140.22979736328125,1221500,['RSI_OVERSOLD'],['RSI_OVERSOLD'],[]
2025-02-10,141.28754664505917,141.6205523719065,137.99677816426612,140.32774353027344,621900,[],[],[]
2025-02-11,139.33856189367694,140.12208105720353,137.36996794046337,139.35813903808594,377300,[],[],[]
2025-02-12,138.06531924654766,140.53339891858562,137.0467400415367,138.7802734375,423500,[],[],[]
2025-02-13,139.80865498326042,140.8174307728779,138.54524183950096,139.8282470703125,665900,[],[],[]
2025-02-14,140.72929960574803,142.31591505799216,139.7792850599418,141.80662536621094,512800,[],[],[]
2025-02-18,141.80661410840983,144.2551019301506,140.93495304164546,143.87313842773438,489600,[],[],[]
2025-02-19,143.12881942892955,144.45100897747918,142.60974114853846,144.01026916503906,331000,[],[],[]
2025-02-20,143.94171731007287,144.38244217212826,142.91334933568692,143.65768432617188,283100,[],[],[]
2025-02-21,144.00044619853725,144.3530289976447,142.2081515484395,143.3246612548828,451900,[],[],[]
2025-02-24,143.16798872554835,144.2551180375646,141.38549716336897,142.6097412109375,353300,[],[],[]
2025-02-25,142.8741632870377,145.27367831527678,142.7174564829414,144.6664581298828,336700,[],[],[]
2025-02-26,143.6283035869074,146.10617230747383,143.59892292574537,143.61851501464844,735600,[],[],[]
2025-02-27,143.21694635144803,144.14736874046284,142.3648773665291,142.6293182373047,262800,[],[],[]
2025-02-28,143.14840249829248,143.92211811173567,141.64992907469428,143.7262420654297,348700,[],[],[]
2025-03-03,143.94169395000412,145.7731579400057,142.68806946190705,143.56951904296875,394100,[],[],[]
2025-03-04,142.54115535917794,144.90150112160728,142.14940329945776,142.93292236328125,490100,[],[],[]
2025-03-05,143.04065503791688,145.78296426258473,143.04065503791688,145.38140869140625,445100,[],[],[]
2025-03-06,144.51952840338762,148.37834721716624,144.02983088781943,148.03555297851562,471700,[],[],[]
2025-03-07,147.40875736971992,150.20003950079644,146.10616003817648,149.63198852539062,480200,[],[],[]
2025-03-10,148.93660655516885,150.82683175384557,147.14431189100188,147.46751403808594,391100,[],[],[]
2025-03-11,147.24227347370973,147.4577416172004,144.2355379258109,144.84275817871094,304000,[],[],[]
2025-03-12,145.18554224213253,145.18554224213253,142.56075547219578,143.0210723876953,299700,[],[],[]
2025-03-13,143.39323247450463,144.16694798641166,140.79782663230102,141.7772216796875,238400,[],[],[]
2025-03-14,142.23754924682325,143.86334873443155,141.5617642221919,143.63809204101562,223600,[],[],[]
2025-03-17,143.49118010431383,144.95048427871978,142.854579225438,144.7937774658203,225200,[],[],[]
2025-03-18,144.35304428256728,144.49015899982857,142.7762175618708,143.28550720214844,219900,[],[],[]
2025-03-19,143.32466483055046,144.42159742424096,142.47259593827573,143.95147705078125,279600,[],[],[]
2025-03-20,143.1190209381293,144.38243413158088,140.76846356409283,142.2081756591797,332800,[],[],[]
2025-03-21,141.03288741960213,142.46281077035695,139.4266801328764,141.83599853515625,601900,[],[],[]
2025-03-24,142.74685366750688,145.12677688467917,141.9241652673277,144.94070434570312,463800,[],[],[]
2025-03-25,145.43038233248038,146.15512513486658,142.9231183481365,144.1767578125,325200,[],[],[]
2025-03-26,144.02005068183723,145.63604659931275,143.28550436582418,145.49893188476562,630400,[],[],[]
2025-03-27,145.2246994062801,146.80152606265366,144.0004555719647,146.2726593017578,312700,[],[],[]
2025-03-28,146.21390008176047,146.90927723620769,142.75663628635246,143.90252685546875,239800,[],[],[]
2025-03-31,143.5597480313838,146.01802456611082,143.08964252694352,145.32266235351562,372500,[],[],[]
2025-04-01,145.8123638891414,146.93866240475776,144.3432710717018,146.02783203125,240000,[],[],[]
2025-04-02,144.95049129591143,148.01600308998087,144.95049129591143,147.42835998535156,247600,[],[],[]
2025-04-03,143.73602588355362,146.9582442746014,143.44221929600363,145.60667419433594,352900,[],[],[]
2025-04-04,142.22775504246812,144.91130294785953,137.1544807452422,137.29159545898438,531600,[],[],[]
2025-04-07,133.5306985896499,139.1915999801272,128.15383009223805,131.87551879882812,629900,['RSI_OVERSOLD'],['RSI_OVERSOLD'],[]
2025-04-08,134.54929557388985,136.4395208305467,128.5749798434124,130.90594482421875,473800,[],[],[]
2025-04-09,130.43582718258966,141.44423305934052,128.6141667138947,140.7880401611328,491800,['engulfing'],[],[]
2025-04-10,137.11532993446937,140.4158870228316,134.7354067381973,137.8596649169922,309000,[],[],[]
2025-04-11,137.96737957378522,141.7282680233526,136.86067330008663,141.140625,203000,[],[],[]
2025-04-14,142.79581425798335,143.38344237476502,140.82722046414764,142.7860107421875,249300,[],[],[]
2025-04-15,143.0896488919898,143.52057023933776,140.807656215774,140.97415161132812,250700,[],[],[]
2025-04-16,141.09164958012386,142.8153944455794,139.63236050898016,142.0122833251953,307700,[],[],[]
2025-04-17,142.40405194984112,142.75663480933545,137.8107011490633,140.8664093017578,390600,[],[],[]
2025-04-21,140.347331860725,141.08187824351555,138.19266546008294,139.6421661376953,291600,[],[],[]
2025-04-22,141.52260661323547,143.79481065396374,140.63135339324026,143.01129150390625,217800,[],[],[]
2025-04-23,144.823151790697,146.24328667195422,144.1865509396658,144.99945068359375,537000,[],[],[]
2025-04-24,144.88192409202932,148.86806971088194,142.4628317080614,148.33920288085938,424500,[],[],[]
2025-04-25,147.74175781185858,149.84745131334506,144.52934305768525,145.98863220214844,220500,[],[],[]
2025-04-28,146.71339348881767,147.91804531450325,145.22470870652703,146.61544799804688,235200,[],[],[]
2025-04-29,146.67422793492148,148.84848659547686,145.93968149404157,147.20310974121094,359900,[],[],[]
2025-04-30,145.9984330116698,146.89947469973708,144.17675754933848,146.86029052734375,556200,[],[],[]
2025-05-01,145.82883124627438,147.8721067076984,144.36514960993844,145.66183471679688,445300,[],[],[]
2025-05-02,150.28867188742916,150.29848992197137,145.18047592473235,149.31614685058594,431600,[],[],[]
2025-05-05,148.7562234700928,150.51462619082648,148.21594670199013,148.8053436279297,267600,[],[],[]
2025-05-06,147.59705042912566,149.355437978684,146.78170385931236,148.25521850585938,312000,[],[],[]
2025-05-07,149.1982877610097,150.44585281383766,147.96052575449374,148.71693420410156,318400,[],[],[]
2025-05-08,149.1098443499113,151.84077180787722,148.5695676661293,150.65213012695312,302500,[],[],[]
2025-05-09,151.19241752840685,151.57553070592974,150.23954360160494,150.6128387451172,231600,[],[],[]
2025-05-12,153.0392239180569,153.82510139061208,150.98613045039815,152.7740020751953,352500,[],[],[]
2025-05-13,153.55002366995856,153.55002366995856,150.49493650476262,150.9271697998047,339400,[],[],[]
2025-05-14,150.90752912864178,150.90752912864178,148.30432613531156,149.78765869140625,350100,[],[],[]
2025-05-15,149.65996739529265,152.7346909024297,149.65996739529265,152.21405029296875,278100,[],[],[]
2025-05-16,152.4399964689241,154.3752135929202,151.86041763202704,154.23768615722656,278600,[],[],[]
2025-05-19,153.5991717253283,155.5442069170815,153.5500515711728,155.28880310058594,185400,[],[],[]
2025-05-20,157.43029958325823,157.43029958325823,155.12180229520027,155.73085021972656,388100,[],[],[]
2025-05-21,154.09032526701444,154.86636965019244,153.07851316508325,153.68756103515625,319800,[],[],[]
2025-05-22,153.59916031317496,154.483263064821,152.81328287317552,153.884033203125,278900,[],[],[]
2025-05-23,152.3810559407016,153.4223372220158,151.53624028030902,153.18658447265625,260500,[],[],[]
2025-05-27,154.25734853178614,155.64245601461047,153.92335544765425,155.36740112304688,352800,[],[],[]
2025-05-28,155.36739421063615,156.03538034918074,154.4832763933447,154.6208038330078,364400,[],[],[]
2025-05-29,155.04320652313712,155.8683710937722,154.05104543149486,155.5343780517578,232100,[],[],[]
2025-05-30,155.44597065814978,155.9764293133438,153.77597547059216,155.60313415527344,335100,[],[],[]
2025-06-02,154.75831599595244,156.26131463804512,152.51857506289332,154.1394500732422,349600,[],[],[]
2025-06-03,153.4223415376803,154.66010346409962,153.24552697068694,153.5009307861328,397800,[],[],[]
2025-06-04,153.72687442684654,153.7563435201819,147.63633532186296,147.7542266845703,831900,['engulfing'],[],[]
2025-06-05,148.90357998413,150.632498572694,146.41825295522108,149.79751586914062,482400,[],[],[]
2025-06-06,151.6443086942385,151.75236704132885,149.52245886221365,150.60302734375,264700,[],[],[]
2025-06-09,150.0136191980335,150.4753066580511,148.6874500367206,148.9232177734375,388400,[],[],[]
2025-06-10,149.47332984142486,150.2984944487939,148.19628081228734,149.8367919921875,323500,[],[],[]
2025-06-11,150.29851181607012,150.87809071516745,148.9232373115395,149.23757934570312,380800,[],[],[]
2025-06-12,148.7365582104655,151.88987086726192,148.7365582104655,151.62464904785156,337200,[],[],[]
2025-06-13,150.2985051515068,151.00579343372206,148.06858195648448,148.49099731445312,361200,[],[],[]
2025-06-16,148.5695758002576,150.20025395390124,148.4516844355203,149.01162719726562,346200,[],[],[]
2025-06-17,147.9998296074305,148.58922653181065,146.49684571567806,146.81118774414062,379700,[],[],[]
2025-06-18,146.48700188455078,148.06857491409224,146.48700188455078,147.0567626953125,383200,[],[],[]
2025-06-20,147.63634617447357,148.10788168123327,146.35931206442524,147.64617919921875,570500,[],[],[]
2025-06-23,146.85047583401547,151.2218996436103,146.85047583401547,151.0745391845703,356500,[],[],[]
2025-06-24,151.84078941040858,151.84078941040858,150.4753180284472,151.15313720703125,246600,[],[],[]
2025-06-25,151.14329517579995,151.80146318967252,150.0725448990236,151.21205139160156,264700,[],[],[]
2025-06-26,151.80147000378724,152.83293320202972,150.41636270870066,151.75234985351562,658200,[],[],[]
2025-06-27,151.9292038692901,153.35359852041546,151.50678849615022,153.0687255859375,643100,[],[],[]
2025-06-30,153.27499173184543,153.73669418509692,151.8800663373244,153.6679229736328,315500,[],[],[]
2025-07-01,153.66791520781175,156.97842145950187,153.20622776725833,156.20236206054688,338300,[],[],[]
2025-07-02,156.2122087454969,157.69554147577566,155.84873159459067,157.4892578125,293500,[],[],[]
2025-07-03,157.76431481113727,158.51089020387988,156.99808835850575,158.196533203125,235100,[],[],[]
2025-07-07,158.1081326731942,159.50305819756994,157.71520139482857,158.1179656982422,313900,[],[],[]
2025-07-08,158.05901225349746,159.7093565965001,157.02756390215916,157.22402954101562,342700,[],[],[]
2025-07-09,157.10611832400417,157.18470756749457,155.30844371561136,156.90965270996094,252800,[],[],[]
2025-07-10,156.37919368056006,157.52853325880866,155.5343780517578,155.5343780517578,361600,[],[],[]
2025-07-11,155.7603190354981,155.7603190354981,153.86440405350666,155.11196899414062,292000,[],[],[]
2025-07-14,154.3654022940558,156.13362296539574,153.92335087356255,154.77798461914062,276600,[],[],[]
2025-07-15,154.95479334988428,155.21019713887813,151.34959626569866,151.43800354003906,254200,[],[],[]
2025-07-16,151.2022641344678,152.8624265472358,150.83880194564915,152.24354553222656,261900,[],[],[]
2025-07-17,152.00777788286257,153.6482890740105,151.78182817574609,153.27499389648438,397700,[],[],[]
2025-07-18,154.08052265083427,154.43416676966828,152.18459265589,153.6188201904297,243100,[],[],[]
2025-07-21,153.65812006565358,153.90370586328876,152.49896229571195,152.7052459716797,205900,[],[],[]
2025-07-22,153.35357548550758,156.54619042612177,152.48910879729814,156.3595428466797,449900,[],[],[]
2025-07-23,157.24366585052525,158.99223535423732,156.3300789809644,158.8055877685547,450500,[],[],[]
2025-07-24,158.559320268112,161.82979531304568,157.40675735764995,159.406494140625,431900,[],[],[]
2025-07-25,159.63303970514875,160.65752157131263,158.38197744884806,158.58885192871094,296300,[],[],[]
2025-07-28,158.79572064833397,159.5640858506177,155.80106845369062,156.3330078125,308500,[],[],[]
2025-07-29,156.67779828906407,157.21959813532774,154.8750906357904,156.45123291015625,388200,[],[],[]
2025-07-30,156.4315385130725,156.55958937255576,152.60940298667225,154.45150756835938,580700,[],[],[]
2025-07-31,153.456563501654,155.0031544025075,152.86550639902828,154.79627990722656,679700,[],[],[]
2025-08-01,154.6288158726098,155.76165777291718,138.9856590147076,139.24179077148438,1012300,['RSI_OVERSOLD'],['RSI_OVERSOLD'],[]
2025-08-04,140.98538123418317,140.98538123418317,135.03547356824112,137.05490112304688,839000,[],[],[]
2025-08-05,137.2617519084508,138.9659599251385,135.63636753338238,138.12863159179688,540800,[],[],[]
2025-08-06,138.21729882019278,138.6605841437307,135.49846914211423,136.47369384765625,515300,[],[],[]
2025-08-07,137.71491162131494,139.37970798596095,136.83818640949156,138.39462280273438,564000,[],[],[]
2025-08-08,138.59163887027924,139.93135534040795,138.48327889728324,138.65074157714844,428700,[],[],[]
2025-08-11,139.222090228796,139.5077583171329,137.12385398637957,137.7838592529297,349500,[],[],[]
2025-08-12,138.12862654943748,138.98564573069308,137.15338694127408,137.399658203125,286100,[],[],[]
2025-08-13,137.60654859738395,139.33044762978915,137.17310872138614,139.32058715820312,729900,[],[],[]
2025-08-14,138.09908585404855,138.09908585404855,134.405016641309,136.27667236328125,875800,['hammer'],['hammer'],[]
2025-08-15,136.29640019144338,136.87759690021682,135.8137029921251,136.65103149414062,770500,[],[],[]
2025-08-18,136.81847442171076,137.4883401327873,135.3014499206359,135.83338928222656,529500,[],[],[]
2025-08-19,136.20773671589527,138.4241784468644,136.20773671589527,137.50804138183594,333100,[],[],[]
2025-08-20,137.8232781418471,139.14328874260568,137.18296372359896,139.07432556152344,519200,[],[],[]
2025-08-21,138.53254347475354,139.78359091939785,138.14836082862038,138.54238891601562,270400,[],[],[]
2025-08-22,139.15312448451428,141.19225798353852,139.08417633944555,139.32058715820312,356500,[],[],[]
2025-08-25,138.8674588166062,139.4979127296023,136.88744301904194,137.47848510742188,245800,[],[],[]
2025-08-26,136.9957973337368,138.06953652648775,135.95159446141804,137.62625122070312,442900,[],[],[]
2025-08-27,137.01548945470773,138.47342629437426,136.95638675089546,137.3602752685547,729100,[],[],[]
2025-08-28,138.07938928608468,138.07938928608468,135.35069910089788,136.8184814453125,320800,[],[],[]
2025-08-29,137.09431078109077,137.78386744151146,136.28654870208595,137.1928253173828,370700,[],[],[]
2025-09-02,135.37041901487592,136.46386429017952,134.13906239994887,134.37548828125,310600,[],[],[]
2025-09-03,134.0503903916783,134.1488898889654,132.43485133034417,133.20321655273438,382300,[],[],[]
2025-09-04,134.3163671782823,136.41458834161003,133.0258929963137,136.3948974609375,401800,[],[],[]
2025-09-05,136.94654859153968,138.7197049562119,135.5772807659998,136.55250549316406,440800,[],[],[]
2025-09-08,136.52295752982062,137.91193130257207,135.62652636886406,136.23728942871094,616100,[],[],[]
2025-09-09,136.1978803964661,137.39968559639797,133.08502244977814,135.0059356689453,637100,[],[],[]
2025-09-10,134.09965957050477,135.40982475360394,132.83875165602893,134.21786499023438,685100,[],[],[]
2025-09-11,134.71040519706986,136.2175843964125,133.84352538471833,135.05519104003906,477500,[],[],[]
2025-09-12,134.58232620679007,135.00592063066784,133.20321303157323,133.2130584716797,261300,[],[],[]
2025-09-15,133.9420357302436,134.13904976383114,132.62202517087903,132.8387451171875,298000,[],[],[]
2025-09-16,132.77962562814162,133.40023410540573,132.0999294759084,133.19337463378906,474800,[],[],[]
2025-09-17,133.40021279614652,135.0256121123868,132.18856241946168,132.64169311523438,377400,[],[],[]
2025-09-18,132.88798558145595,133.48888814617573,132.07037810452255,132.49395751953125,254800,[],[],[]
2025-09-19,132.65158018177598,133.0850200863436,131.35126046807318,132.4348602294922,877200,[],[],[]
2025-09-22,132.11962230163485,132.92739938115005,130.691251766929,130.74050903320312,402100,[],[],[]
2025-09-23,131.0261738005905,131.95215627068484,130.00169183165633,130.0509490966797,319700,[],[],[]
2025-09-24,130.03125417731107,131.3217134615017,129.38109429893456,129.53871154785156,353300,[],[],[]
2025-09-25,129.53870141670419,130.54349251095573,128.32705085173455,128.8688507080078,388700,[],[],[]
2025-09-26,129.37123644965243,130.4548211118124,129.00675974879576,130.31690979003906,274400,[],[],[]
2025-09-29,130.42527680922657,130.7010994676822,129.4007947965638,130.29722595214844,540600,[],[],[]
2025-09-30,129.74557555443596,131.76498814664785,129.74557555443596,131.66648864746094,310400,[],[],[]
2025-10-01,131.34141139667054,132.35604794922318,130.33662028487404,132.1393280029297,310100,[],[],[]
2025-10-02,131.66648573117217,132.38559368725765,130.97692912730892,131.19363403320312,398500,[],[],[]
2025-10-03,130.49423360821496,131.58767874762543,130.45482178395852,131.23304748535156,402000,[],[],[]
2025-10-06,130.90797079558112,131.21334480064905,129.45004891757588,129.9130401611328,447100,[],[],[]
2025-10-07,130.13959122892322,130.53361925058735,127.8738925263408,128.6422576904297,438800,[],[],[]
2025-10-08,129.22345454639873,130.04107697266164,128.31717806976172,129.6470489501953,361300,[],[],[]
2025-10-09,129.73571125193516,130.8587077217144,128.258083526899,128.66197204589844,554200,[],[],[]
2025-10-10,128.98704858156654,130.04108184834632,127.95270619480443,128.97718811035156,426000,[],[],[]
2025-10-13,129.03630601031335,130.37602238234368,128.2186835523413,128.2777862548828,311400,[],[],[]
2025-10-14,128.10046262811323,129.10525366111025,127.11537750629039,127.86405181884766,337400,[],[],[]
2025-10-15,127.86406447402499,128.44526114593418,125.95299674355027,126.18942260742188,438300,[],[],[]
2025-10-16,126.5243419047704,127.56852978216413,125.94313774513942,127.23360443115234,352700,[],[],[]
2025-10-17,127.23361868299475,128.15960125344935,126.92824465044238,127.41092681884766,339700,[],[],[]
2025-10-20,127.67688307805489,128.1497197271898,126.11060134384137,128.06106567382812,240500,[],[],[]
2025-10-21,128.66197064438,129.80467301345007,127.19418837559832,128.62257385253906,311600,[],[],[]
2025-10-22,128.70137488096933,130.13960588126338,128.04136960320932,128.12017822265625,357500,[],[],[]
2025-10-23,128.2783732274755,130.04820070636612,128.1992726855578,129.29676818847656,378600,[],[],[]
2025-10-24,129.27699821696652,129.41542040316887,127.09188897025071,127.42807006835938,489300,[],[],[]
2025-10-27,127.68513804202082,128.43657062662018,127.00290900843953,127.32919311523438,521700,[],[],[]
2025-10-28,127.29953156353623,127.65547648827675,126.03395296154486,126.6568603515625,413500,[],[],[]
2025-10-29,125.84608767724625,126.0636104080385,122.02957306455488,122.9095458984375,651100,['RSI_OVERSOLD'],['RSI_OVERSOLD'],[]
2025-10-30,122.64259734594978,124.10591981246532,121.6538630953795,122.95899200439452,702600,[],[],[]
2025-10-31,113.99116650647635,116.76950718685457,102.06703450151069,114.70305633544922,2758200,"['hammer', 'rebound']","['hammer', 'rebound']",[]
2025-11-03,114.78215353846565,114.78215353846565,107.0700310437489,111.84561920166016,1661000,['engulfing'],[],[]
2025-11-04,113.07164158279889,114.69316503673942,111.26225622049984,112.89366912841795,1029100,[],[],[]
2025-11-05,113.0419846852512,114.73271928879292,111.49955417930168,114.26801300048828,896900,[],[],[]
2025-11-06,113.72420954512762,115.64235639440284,112.5179601026742,114.84148406982422,880300,[],[],[]
2025-11-07,114.9205721317626,115.60279355716193,113.3979206546534,114.91068267822266,697200,[],[],[]
2025-11-10,114.68328006091402,115.45449154553131,112.7157010753592,115.06888580322266,514000,[],[],[]
2025-11-11,115.64235215314066,118.16362740289493,115.64235215314066,116.93759155273438,484800,[],[],[]
2025-11-12,117.00680708571316,118.32182544371217,116.58165860151216,116.82884216308594,547500,[],[],[]
2025-11-13,116.96725913412709,120.50692184487994,116.96725913412709,118.8458480834961,679400,[],[],[]
2025-11-14,118.42069332802943,119.33033453666945,117.05624283023447,117.27376556396484,521200,[],[],[]
2025-11-17,117.15511423578637,118.14384844414108,116.24548057452645,117.99553680419922,820200,[],[],[]
2025-11-18,118.31193671929117,118.75686408712446,116.72995598156568,117.96587371826172,817400,[],[],[]
2025-11-19,118.16362210922092,118.16362210922092,116.38389759577892,116.6706314086914,598900,[],[],[]
2025-11-20,116.6706348353594,118.26249749040204,116.04773500908138,117.24410247802734,507400,[],[],[]
2025-11-21,116.79916971414366,120.86286792776396,116.79916971414366,120.1509780883789,509100,[],[],[]
2025-11-24,119.48852930748254,121.02107037008182,119.08315219875637,120.10154724121094,740000,[],[],[]
2025-11-25,121.03095951338571,122.68214385066395,121.03095951338571,122.04935455322266,543600,[],[],[]
2025-11-26,121.63407548431788,123.11717675407198,121.63407548431788,122.41517639160156,538000,[],[],[]
2025-11-28,122.23721179455741,124.65961521692694,122.23721179455741,123.34459686279295,315700,[],[],[]
2025-12-01,123.4731246454934,123.55222519221778,121.64396787729149,121.89115142822266,536800,[],[],[]
2025-12-02,122.37563109798752,122.46462110038372,119.43909680089519,120.2300796508789,325400,[],[],[]
2025-12-03,120.08176988930819,122.86011822072538,120.0422271581168,120.68489837646484,543100,[],[],[]
2025-12-04,120.82332005860297,122.68214524142189,120.55636513524256,120.64534759521484,708000,[],[],[]
2025-12-05,120.61568357957053,122.11856379579518,119.26112254625718,120.53659057617188,537000,[],[],[]
2025-12-08,119.5577382392565,120.72444490270962,117.95599365521365,118.71731567382812,496600,[],[],[]
2025-12-09,118.25260671307171,118.49979025868576,114.06037589162155,114.41632080078124,640300,[],[],[]
2025-12-10,114.86125658975384,116.47289825316332,113.83297205936894,115.84999084472656,734700,[],[],[]
2025-12-11,116.63108700530958,117.33308739219939,115.84010415999195,116.68052673339844,389700,[],[],[]
2025-12-12,117.18477675810965,120.26963024864754,116.32458281214376,120.10154724121094,656400,[],[],[]
2025-12-15,120.11144352151474,121.0803988905213,119.12270924260135,120.95186614990234,588600,[],[],[]
2025-12-16,121.2880269287191,122.45473362902365,118.17351257639861,121.44622802734376,644800,[],[],[]
2025-12-17,120.73433285185865,123.19627887906456,118.72720364799784,122.2372055053711,567300,[],[],[]
2025-12-18,122.2767604710972,122.72169540087228,120.65523693661117,121.23859405517578,457100,[],[],[]
2025-12-19,121.95048213130444,122.92933449703057,119.89392056770687,120.02245330810548,1300400,[],[],[]
2025-12-22,120.02244905131522,122.30642273678363,119.70605439556444,121.35723876953124,527800,[],[],[]
2025-12-23,121.48577032424927,121.6439638690421,119.95322934159698,120.8134307861328,311700,[],[],[]
2025-12-24,121.14961134349309,121.78240068560058,120.38828925932891,121.36713409423828,198000,[],[],[]
2025-12-26,120.99141254975284,122.08890816765886,120.34873378036153,121.86149597167967,306000,[],[],[]
2025-12-29,121.90103810595791,122.90954365167187,120.9419647432383,121.82193756103516,400200,[],[],[]
2025-12-30,121.416567953602,122.8996693168295,121.04084411378048,121.35723876953124,289800,[],[],[]
2025-12-31,120.15097596397585,121.94058998507744,119.98289296138277,120.58602142333984,314300,[],[],[]
2026-01-02,120.36850209754442,121.61430932967109,119.4193181494529,121.15949249267578,295100,[],[],[]
2026-01-05,120.38828287586784,123.17651312401217,120.38828287586784,121.61431121826172,435700,[],[],[]
2026-01-06,120.8430922091253,121.46599202442482,118.7568624940921,119.20178985595705,777200,[],[],[]
2026-01-07,119.31055741898702,120.57613602320411,116.2850330968153,119.0831527709961,478500,[],[],[]
2026-01-08,118.56900865138996,121.98014631699304,118.17351344536361,121.06062316894533,330000,[],[],[]
2026-01-09,120.70467850674397,123.5621198728979,120.09166055886544,122.4547348022461,429100,[],[],[]
2026-01-12,122.60303947816966,123.88839694168904,121.5945339241578,123.72030639648438,477300,[],[],[]
2026-01-13,123.64121411549611,124.02681984811235,121.15948917361368,122.10867309570312,351900,[],[],[]
2026-01-14,122.71179941985773,125.7274416797615,122.71179941985773,125.42092895507812,611700,[],[],[]
2026-01-15,125.70766789113175,125.78676843900955,123.11718152395939,123.7005386352539,381000,[],[],[]
2026-01-16,122.6030456768324,123.78952374665012,121.8516055427779,123.30504608154295,363400,[],[],[]
2026-01-20,123.49289879622381,124.11579860493296,122.04934781961309,122.42506408691406,275100,[],[],[]
2026-01-21,122.90955081825824,124.20479780070094,122.50417370291804,123.60166931152344,421000,[],[],[]
2026-01-22,123.64120901396964,124.98588806730807,122.66235676992284,123.06774139404295,369700,[],[],[]
2026-01-23,122.93921055756546,124.85735737798285,122.47451180588162,124.58051300048828,429500,[],[],[]
2026-01-26,124.99577817123767,125.55935637440062,123.69064930373163,124.92656707763672,315400,[],[],[]
2026-01-27,123.54234245634075,124.87713973871091,122.7711309424474,123.33470916748048,303100,[],[],[]
2026-01-28,122.80078648003611,123.66098796268659,121.86149199320619,122.3064193725586,347800,[],[],[]
2026-01-29,122.88978028418853,123.86862507511535,121.20892754069328,122.4547348022461,386000,[],[],[]
2026-01-30,121.52533188143771,123.60167232496788,121.27814831569735,123.54234313964844,512700,[],[],[]
2026-02-02,122.8007834281537,124.49152553193814,122.8007834281537,123.42369079589844,489100,[],[],[]
2026-02-03,122.5140546237511,126.4887626679777,122.29653189940339,123.22593688964844,658700,[],[],[]
2026-02-04,124.77433039015442,129.44927260782487,123.7718457735083,128.26812744140625,589400,[],[],[]
2026-02-05,126.71975064755806,128.1192596554473,121.05225107397254,123.05722045898438,2144200,[],[],[]
2026-02-06,126.58078326238557,134.97782150042084,126.58078326238557,133.31031799316406,1045700,[],[],[]
2026-02-09,132.5857587104382,138.531180271334,132.2582131007177,137.43936157226562,1043400,[],[],[]
2026-02-10,136.78427392403074,139.88104683101494,136.78427392403074,139.126708984375,622100,[],[],[]
2026-02-11,137.99519392074043,139.50388475135443,137.56840169460276,138.9678955078125,584300,[],[],[]
2026-02-12,139.11678651599092,140.94308767923593,138.3525134196047,139.46417236328125,572700,[],[],[]
2026-02-13,139.46416820425452,141.86615414747763,139.36492159879577,141.51876831054688,471900,[],[],[]
2026-02-17,138.2234773285034,142.55102629654255,138.2234773285034,140.59568786621094,614700,[],[],[]
2026-02-18,140.41703714664675,142.04482998774162,139.791721402891,140.66517639160156,582000,[],[],[]
2026-02-19,140.5956812663536,142.25326464590432,139.98030082414553,142.09445190429688,525500,[],[],[]
2026-02-20,142.0547550361601,144.0597244456509,140.94309602664507,143.97039794921875,664500,[],[],[]
2026-02-23,142.42199361111417,145.15152505885825,142.06467252487357,144.63539123535156,513500,[],[],[]
2026-02-24,144.98279666295065,145.8165408414096,142.77931908758302,143.06715393066406,429800,[],[],[]
2026-02-25,141.3500320156877,142.5907281428982,139.3847584456305,141.61801147460938,348900,[],[],[]
2026-02-26,142.45178416412276,142.8488009040386,139.9505362960431,140.73464965820312,331300,[],[],[]
2026-02-27,140.47658357934912,142.9381205686862,139.9505296087492,142.64036560058594,344600,[],[],[]
2026-03-02,141.93563886113196,142.2830398395081,140.56590547180699,141.60809326171875,335000,[],[],[]
2026-03-03,139.5931967078321,140.26814325067423,135.90088396317486,138.71974182128906,347300,[],[],[]
2026-03-04,138.302888395737,138.47162126788456,134.9976717766612,136.02000427246094,389000,[],[],[]
2026-03-05,134.98775502807862,135.32522078079646,133.40959299752922,133.72720336914062,452300,[],[],[]
2026-03-06,133.0026313554941,133.0026313554941,130.02496050425168,131.096923828125,398500,[],[],[]
2026-03-09,129.9951790988654,132.98276993154295,126.58078092139597,132.75448608398438,545700,[],[],[]
2026-03-10,132.3574660154593,133.1316591702968,130.42196798314936,131.14654541015625,503100,[],[],[]
2026-03-11,130.8190202738326,132.28800044532838,129.0721101988683,131.03738403320312,563800,[],[],[]
2026-03-12,130.29295237048805,131.80162799870666,127.68252279954662,127.90088653564452,620600,[],[],[]
2026-03-13,129.1812869710477,129.1812869710477,126.10436937058472,127.69245147705078,660600,['hammer'],['hammer'],[]
2026-03-16,128.51628506786432,130.4319280867629,125.06219070801843,128.08949279785156,370700,[],[],[]
2026-03-17,129.00263581888095,130.04482370856644,127.28551643200822,128.5361328125,276700,[],[],[]
2026-03-18,123.45423058912085,125.63786042046193,120.51626292882627,123.29542541503906,910500,[],[],[]
2026-03-19,122.0944332187195,123.89095888497408,120.54603921873606,123.04728698730467,518500,[],[],[]
2026-03-20,123.3351299924137,123.3351299924137,119.41452545613382,120.15894317626952,1481500,"['engulfing', 'RSI_OVERSOLD']",['RSI_OVERSOLD'],[]
2026-03-23,122.59071811756198,125.39964869362488,122.07458423299708,123.21602630615234,455200,[],[],[]
2026-03-24,122.24331527751687,124.28798013248849,121.95547285876512,123.22594451904295,405000,[],[],[]
2026-03-25,124.5063454916763,125.62793211237509,122.78921864642815,124.88351440429688,337200,[],[],[]
2026-03-26,124.2879863613124,126.39220231437442,123.1961751968319,123.76193237304688,442100,[],[],[]
2026-03-27,123.01751427118629,123.28550132328674,120.8537397563364,121.08202362060548,381400,[],[],[]
2026-03-30,121.64777727824666,123.0175107146969,120.19864504103799,122.44182586669922,562000,[],[],[]
2026-03-31,123.46415851677583,126.01502957768724,122.67010992701154,125.08202362060548,557800,[],[],[]
2026-04-01,126.3921998209656,127.68252689973863,125.38972274230008,125.8065948486328,380200,[],[],[]
2026-04-02,124.2085781211438,126.144061175827,123.32520302720032,125.07210540771484,297500,[],[],[]
2026-04-06,123.6626687607928,125.25076596450162,123.6626687607928,125.07210540771484,461100,[],[],[]
2026-04-07,124.38723692091199,126.22346576757813,123.87111063782318,124.67507934570312,376900,[],[],[]
2026-04-08,130.4021481364575,131.68254004802253,127.19617800807119,131.03738403320312,645200,[],[],[]
2026-04-09,130.24332882387228,131.45424955756675,126.39220287440348,130.42198181152344,424100,[],[],[]
2026-04-10,131.2656579543429,131.71230555728022,129.87608426848973,130.521240234375,407400,[],[],[]
2026-04-13,129.82646170678544,131.43439923843442,126.63042687940093,131.126708984375,396300,[],[],[]
2026-04-14,130.2532453341348,131.73216065356567,129.99518597737963,130.03488159179688,315500,[],[],[]
2026-04-15,129.83636721114993,130.0547309433663,127.64282491736233,128.68499755859375,407100,[],[],[]
2026-04-16,125.95548275515449,129.3599535123959,125.95548275515449,127.33512878417967,393800,[],[],[]
2026-04-17,128.68501330537714,131.31529853067389,128.68501330537714,129.65773010253906,401100,[],[],[]
2026-04-20,129.59817078840075,131.00759986778516,128.69494031122633,129.945556640625,403600,[],[],[]
2026-04-21,129.72719549997504,131.2656618627598,125.7470474243164,125.7470474243164,310200,[],[],[]
2026-04-22,126.33264680138942,126.33264680138942,122.04480110008107,123.62297058105467,458900,[],[],[]
2026-04-23,124.44679072012923,126.4914632367014,123.5137923135972,124.01007080078124,440800,[],[],[]
2026-04-24,123.4840092218708,123.4840092218708,121.65770056359271,123.15646362304688,440900,[],[],[]
2026-04-27,123.11676141393266,125.29046349458778,122.62048295333439,123.80162811279295,359700,[],[],[]
2026-04-28,125.18128618602748,125.70734016180099,122.79914797388655,124.8338851928711,354300,[],[],[]
2026-04-29,124.20857785922294,124.96292327213307,121.87607050853111,121.9852523803711,448400,[],[],[]
2026-04-30,122.51130595027863,125.14158341040142,120.97283963229867,122.75944519042967,764800,[],[],[]
2026-05-01,126.26316859263083,127.5237125861033,117.0224658192811,118.13412475585938,989400,['engulfing'],[],[]
2026-05-04,117.79666211505766,120.84381172589876,116.58574139374336,119.7023696899414,739600,[],[],[]
2026-05-05,120.00014032911528,122.78922301811379,119.92073395333378,121.1217269897461,628600,[],[],[]
2026-05-06,122.74597925597983,125.94466800462598,121.24129756714207,122.19791412353516,917000,[],[],[]
2026-05-07,122.5068295340525,126.024390540421,122.13813047351476,124.66918182373048,749700,[],[],[]
2026-05-08,124.7887560396552,125.41653350076692,119.96580580317682,120.56369018554688,794900,[],[],[]
2026-05-11,120.79288554794945,120.79288554794945,119.01915855027659,119.53732299804688,706100,[],[],[]
2026-05-12,120.02559365453986,120.43415267647455,116.72725880994862,117.6340560913086,696600,[],[],[]
2026-05-13,117.58423293808004,118.33159035082207,116.01976505817389,117.46465301513672,679500,[],[],[]
2026-05-14,118.31166263789775,119.73662439056807,116.62761485678394,117.5742645263672,531000,[],[],[]
2026-05-15,117.49455009110835,117.5045093824967,114.06666843041745,114.26596069335938,447000,[],[],[]
2026-05-18,115.19268785792542,116.90662874327985,114.76420263658683,115.40194702148438,433100,[],[],[]
2026-05-19,115.48166685737739,115.63113986049136,112.05378509001824,113.20970153808594,575800,[],[],[]
2026-05-20,113.66807993613209,115.04321484042607,111.1569623712229,114.85388946533205,562600,[],[],[]
2026-05-21,116.08951407739181,116.08951407739181,112.3726533287784,115.1030044555664,345600,[],[],[]
2026-05-22,115.39198749681161,116.38846404651632,114.30582410432685,115.82047271728516,405800,[],[],[]
2026-05-26,115.79056648170689,116.5578576455896,114.96349676302549,115.96993255615234,344500,[],[],[]
2026-05-27,116.52796630163347,117.69384200162882,114.32575411191588,114.89374542236328,464000,[],[],[]
2026-05-28,114.40547144179772,115.93007936247552,112.95061657623216,115.58131408691406,510100,[],[],[]
2026-05-29,114.654585617753,116.84683851674724,113.34920381323532,115.44180297851562,559600,[],[],[]
2026-06-01,114.28589767180515,114.72434218302038,111.63526640610466,111.9840316772461,706800,[],[],[]
2026-06-02,111.55554368794822,112.65167394505288,110.84804626905222,111.78473663330078,452400,[],[],[]
2026-06-03,111.29646253608041,113.61824699938005,111.29646253608041,112.1334991455078,372600,[],[],[]
2026-06-04,114.54497230632396,115.35212345281657,111.14699134502068,112.15343475341795,337600,[],[],[]
2026-06-05,112.69152600064275,114.18624078068319,111.58544405772435,112.96057891845705,466300,[],[],[]
2026-06-08,111.86445781905675,112.24311616501639,110.55906839000056,111.54558563232422,422200,[],[],[]
2026-06-09,112.88085932662787,115.74074968498803,112.27300803930217,115.49163055419922,444400,[],[],[]
2026-06-10,115.74074928767202,116.13934141606833,112.97054577921195,114.26596069335938,496800,[],[],[]
2026-06-11,114.70441351982217,116.59772043978678,113.85740999319692,116.1692352294922,395200,[],[],[]
2026-06-12,117.48458764205597,118.05257897569324,115.96993901734801,117.3052215576172,342600,[],[],[]
2026-06-15,118.28175862932589,120.31457162088157,117.14577601676719,117.66394805908205,576100,[],[],[]
2026-06-16,118.08246565966249,120.62348378448294,113.36912845320511,120.22489166259766,474700,[],[],[]
2026-06-17,121.19147655168898,121.91890015059502,119.03908362900876,119.56721496582033,680500,[],[],[]
2026-06-18,120.03556323646836,122.11820316081037,118.69032142639776,119.89605712890624,750600,[],[],[]
2026-06-22,119.13873446752552,120.58363003359557,118.46113010611296,119.57718658447266,468400,[],[],[]
2026-06-23,119.93591657137902,122.14809569936507,118.66042782074159,120.1850357055664,514100,[],[],[]
2026-06-24,121.55021059109052,124.60939323702422,121.34094382937873,123.84210205078124,404900,[],[],[]
2026-06-25,125.28699706013307,127.68850153642342,124.45991971828299,125.98452758789062,363500,[],[],[]
2026-06-26,125.49625757990485,126.67210019838984,124.32041496141991,125.53611755371094,727400,[],[],[]
2026-06-29,125.16742108368359,125.60587320209561,123.48337326752177,124.84854888916016,446600,[],[],[]
2026-06-30,124.16097333332937,125.86494727656601,123.50330278098957,124.75885772705078,329300,[],[],[]
2026-07-01,124.6791460908217,126.39307933521575,123.66273577346423,124.80868530273438,405600,[],[],[]
2026-07-02,125.82508774888942,127.77818082996899,124.96812492977865,126.5325927734375,468400,[],[],[]
2026-07-06,125.984527838973,126.60234602372707,123.74245564919633,125.56600952148438,431400,[],[],[]
2026-07-07,126.18381913439254,128.26645901687075,125.71548155556972,127.2400894165039,392700,[],[],[]
2026-07-08,126.00445175211414,126.26353777363066,122.60647080352628,123.77234649658205,537700,[],[],[]
2026-07-09,124.02146439127117,125.03787467960886,123.34386006655015,124.0114974975586,302100,[],[],[]
2026-07-10,124.55956853594634,126.53259544666133,123.93179104742977,125.08769989013672,385200,[],[],[]
2026-07-13,125.64571994715708,126.72191640641844,123.96167980892794,124.449951171875,391600,[],[],[]
2026-07-14,127.96751666781716,128.95403392567474,127.50913836732852,127.82801055908205,739900,[],[],['shooting_star']
2026-07-15,129.25298235497795,130.3092450844948,127.99741214779503,128.65509033203125,466800,[],[],[]
2026-07-16,129.56187796196684,134.6040465870392,129.56187796196684,134.27520751953125,579300,[],[],[]
2026-07-17,135.351401437915,136.16850424088722,130.24944675099272,132.1427459716797,530800,[],[],[]
2026-07-20,131.9135687694055,131.9135687694055,129.2928306127641,129.4522705078125,422900,[],[],[]
2026-07-21,130.07008242817932,130.59821378154385,127.46927803301473,128.45579528808594,328800,[],[],[]
2026-07-22,129.35261865201468,130.02025611657908,128.02730301458666,128.71487426757812,309900,[],[],[]
2026-07-23,128.39600579528673,129.36258923692642,127.71839385448645,128.54547119140625,382800,[],[],[]
2026-07-24,129.13338680160044,132.26232242316664,129.13338680160044,131.8936309814453,335900,[],[],[]
2026-07-27,132.72071171310446,133.60757521827134,132.19258036761323,132.9000701904297,411200,[],[],[]
2026-07-28,134.9030016293852,137.54365843276426,134.3549364800917,137.32443237304688,593100,[],[],[]
2026-07-29,135.52081464440568,136.11870667337666,134.0759266469227,135.75,580000,[],[],[]
2026-07-30,136.39999389648438,136.39999389648438,133.11000061035156,133.8699951171875,627000,[],[],[]
2026-07-31,137.4600067138672,139.57000732421875,132.1699981689453,133.9600067138672,886500,[],[],[]
2026-08-03,137.22999572753906,138.4600067138672,134.52999877929688,136.77000427246094,642500,[],[],[]
2026-08-04,137.8699951171875,137.8699951171875,135.33999633789062,136.17999267578125,511900,[],[],[]
2026-08-05,136.8699951171875,136.8800048828125,134.8699951171875,136.75,454800,[],[],[]
2026-08-06,138.6199951171875,138.69000244140625,134.6699981689453,135.77999877929688,545000,[],[],[]
2026-08-07,135.05999755859375,137.67999267578125,134.7100067138672,135.4199981689453,686300,[],[],[]
2026-08-10,134.38999938964844,134.52000427246094,132.92999267578125,133.67999267578125,446700,[],[],[]
2026-08-11,132.8000030517578,135.0500030517578,132.8000030517578,134.75,343700,[],[],[]
2026-08-12,133.50999450683594,134.47000122070312,132.27000427246094,133.14999389648438,315100,[],[],[]
2026-08-13,134.44000244140625,134.44000244140625,132.08999633789062,132.57000732421875,490800,[],[],[]
2026-08-14,132.08999633789062,132.75,129.55999755859375,132.10000610351562,381600,[],[],[]
2026-08-17,133.16000366210938,133.16000366210938,130.22000122070312,131.74000549316406,374500,[],[],[]
2026-08-18,132.75,133.47000122070312,131.22000122070312,131.72999572753906,500100,[],[],[]
2026-08-19,133.0500030517578,134.3800048828125,132.2899932861328,132.92999267578125,390400,[],[],[]
2026-08-20,131.4499969482422,133.8300018310547,130.89999389648438,132.9600067138672,420900,[],[],[]
2026-08-21,134.0399932861328,135.1300048828125,133.10000610351562,134.8000030517578,400500,[],[],[]
2026-08-24,135.36000061035156,136.33999633789062,134.38999938964844,134.75,282300,[],[],[]
2026-08-25,135.58999633789062,135.58999633789062,133.22000122070312,134.72000122070312,280900,[],[],[]
2026-08-26,135.0,136.63999938964844,134.44000244140625,135.24000549316406,281400,[],[],[]
2026-08-27,133.77999877929688,134.69000244140625,132.25999450683594,132.86000061035156,295700,[],[],[]
2026-08-28,133.5500030517578,133.66000366210938,132.0399932861328,132.99000549316406,325400,[],[],[]
2026-08-31,132.2100067138672,132.44000244140625,130.8300018310547,131.6199951171875,389200,[],[],[]
2026-09-01,131.64999389648438,132.07000732421875,130.77999877929688,130.9199981689453,418200,[],[],[]
2026-09-02,131.27000427246094,132.25999450683594,129.69000244140625,130.3300018310547,472500,[],[],[]
2026-09-03,130.64999389648438,130.64999389648438,126.98999786376952,128.30999755859375,340000,[],[],[]
2026-09-04,127.52999877929688,128.47000122070312,126.52999877929688,127.41000366210938,324000,[],[],[]
2026-09-08,126.1999969482422,126.98999786376952,124.25,124.33999633789062,362200,[],[],[]
2026-09-09,123.97000122070312,123.97000122070312,121.08999633789062,122.11000061035156,383000,[],[],[]
2026-09-10,122.0500030517578,123.12000274658205,120.73999786376952,123.0500030517578,435100,[],[],[]
2026-09-11,124.8499984741211,125.5999984741211,123.05999755859376,124.83999633789062,491900,[],[],[]
2026-09-14,125.27999877929688,126.20999908447266,124.0,124.91000366210938,423200,[],[],[]
2026-09-15,124.8499984741211,124.86000061035156,123.41000366210938,124.68000030517578,474700,[],[],[]
2026-09-16,124.83999633789062,126.25,123.1999969482422,124.70999908447266,461600,[],[],[]
2026-09-17,125.66000366210938,126.22000122070312,124.5500030517578,125.5,551500,[],[],[]
2026-09-18,125.48999786376952,125.7699966430664,124.41000366210938,124.44000244140624,821300,[],[],[]
2026-09-21,124.83999633789062,125.9800033569336,123.31999969482422,123.4000015258789,424400,[],[],[]
2026-09-22,124.72000122070312,125.8000030517578,123.83000183105467,125.4499969482422,417700,[],[],[]
2026-09-23,125.43000030517578,125.72000122070312,124.5,124.73999786376952,335300,[],[],[]
2026-09-24,124.51000213623048,124.98999786376952,122.31999969482422,123.37999725341795,377200,[],[],[]
2026-09-25,123.76000213623048,124.0500030517578,122.41999816894533,123.87000274658205,325600,[],[],[]
