Date,Open,High,Low,Close,Volume,signal,bull_patterns,bear_patterns
2025-12-05,120.61568357957053,122.11856379579518,119.26112254625718,120.53659057617188,537000,[],[],[]
2025-12-08,119.5577382392565,120.72444490270962,117.95599365521365,118.71731567382812,496600,[],[],[]
2025-12-09,118.25260671307171,118.49979025868576,114.06037589162155,114.41632080078124,640300,[],[],[]
2025-12-10,114.86125658975384,116.47289825316332,113.83297205936894,115.84999084472656,734700,[],[],[]
2025-12-11,116.63108700530958,117.33308739219939,115.84010415999195,116.68052673339844,389700,[],[],[]
2025-12-12,117.18477675810965,120.26963024864754,116.32458281214376,120.10154724121094,656400,[],[],[]
2025-12-15,120.11144352151474,121.0803988905213,119.12270924260135,120.95186614990234,588600,[],[],[]
2025-12-16,121.2880269287191,122.45473362902365,118.17351257639861,121.44622802734376,644800,[],[],[]
2025-12-17,120.73433285185865,123.19627887906456,118.72720364799784,122.2372055053711,567300,[],[],[]
2025-12-18,122.2767604710972,122.72169540087228,120.65523693661117,121.23859405517578,457100,[],[],[]
2025-12-19,121.95048213130444,122.92933449703057,119.89392056770687,120.02245330810548,1300400,[],[],[]
2025-12-22,120.02244905131522,122.30642273678363,119.70605439556444,121.35723876953124,527800,[],[],[]
2025-12-23,121.48577032424927,121.6439638690421,119.95322934159698,120.8134307861328,311700,[],[],[]
2025-12-24,121.14961134349309,121.78240068560058,120.38828925932891,121.36713409423828,198000,[],[],[]
2025-12-26,120.99141254975284,122.08890816765886,120.34873378036153,121.86149597167967,306000,[],[],[]
2025-12-29,121.90103810595791,122.90954365167187,120.9419647432383,121.82193756103516,400200,[],[],[]
2025-12-30,121.416567953602,122.8996693168295,121.04084411378048,121.35723876953124,289800,[],[],[]
2025-12-31,120.15097596397585,121.94058998507744,119.98289296138277,120.58602142333984,314300,[],[],[]
2026-01-02,120.36850209754442,121.61430932967109,119.4193181494529,121.15949249267578,295100,[],[],[]
2026-01-05,120.38828287586784,123.17651312401217,120.38828287586784,121.61431121826172,435700,[],[],[]
2026-01-06,120.8430922091253,121.46599202442482,118.7568624940921,119.20178985595705,777200,[],[],[]
2026-01-07,119.31055741898702,120.57613602320411,116.2850330968153,119.0831527709961,478500,[],[],[]
2026-01-08,118.56900865138996,121.98014631699304,118.17351344536361,121.06062316894533,330000,[],[],[]
2026-01-09,120.70467850674397,123.5621198728979,120.09166055886544,122.4547348022461,429100,[],[],[]
2026-01-12,122.60303947816966,123.88839694168904,121.5945339241578,123.72030639648438,477300,[],[],[]
2026-01-13,123.64121411549611,124.02681984811235,121.15948917361368,122.10867309570312,351900,[],[],[]
2026-01-14,122.71179941985773,125.7274416797615,122.71179941985773,125.42092895507812,611700,[],[],[]
2026-01-15,125.70766789113175,125.78676843900955,123.11718152395939,123.7005386352539,381000,[],[],[]
2026-01-16,122.6030456768324,123.78952374665012,121.8516055427779,123.30504608154295,363400,[],[],[]
2026-01-20,123.49289879622381,124.11579860493296,122.04934781961309,122.42506408691406,275100,[],[],[]
2026-01-21,122.90955081825824,124.20479780070094,122.50417370291804,123.60166931152344,421000,[],[],[]
2026-01-22,123.64120901396964,124.98588806730807,122.66235676992284,123.06774139404295,369700,[],[],[]
2026-01-23,122.93921055756546,124.85735737798285,122.47451180588162,124.58051300048828,429500,[],[],[]
2026-01-26,124.99577817123767,125.55935637440062,123.69064930373163,124.92656707763672,315400,[],[],[]
2026-01-27,123.54234245634075,124.87713973871091,122.7711309424474,123.33470916748048,303100,[],[],[]
2026-01-28,122.80078648003611,123.66098796268659,121.86149199320619,122.3064193725586,347800,[],[],[]
2026-01-29,122.88978028418853,123.86862507511535,121.20892754069328,122.4547348022461,386000,[],[],[]
2026-01-30,121.52533188143771,123.60167232496788,121.27814831569735,123.54234313964844,512700,[],[],[]
2026-02-02,122.8007834281537,124.49152553193814,122.8007834281537,123.42369079589844,489100,[],[],[]
2026-02-03,122.5140546237511,126.4887626679777,122.29653189940339,123.22593688964844,658700,[],[],[]
2026-02-04,124.77433039015442,129.44927260782487,123.7718457735083,128.26812744140625,589400,[],[],[]
2026-02-05,126.71975064755806,128.1192596554473,121.05225107397254,123.05722045898438,2144200,[],[],[]
2026-02-06,126.58078326238557,134.97782150042084,126.58078326238557,133.31031799316406,1045700,[],[],[]
2026-02-09,132.5857587104382,138.531180271334,132.2582131007177,137.43936157226562,1043400,[],[],[]
2026-02-10,136.78427392403074,139.88104683101494,136.78427392403074,139.126708984375,622100,[],[],[]
2026-02-11,137.99519392074043,139.50388475135443,137.56840169460276,138.9678955078125,584300,[],[],[]
2026-02-12,139.11678651599092,140.94308767923593,138.3525134196047,139.46417236328125,572700,[],[],[]
2026-02-13,139.46416820425452,141.86615414747763,139.36492159879577,141.51876831054688,471900,[],[],[]
2026-02-17,138.2234773285034,142.55102629654255,138.2234773285034,140.59568786621094,614700,[],[],[]
2026-02-18,140.41703714664675,142.04482998774162,139.791721402891,140.66517639160156,582000,[],[],[]
2026-02-19,140.5956812663536,142.25326464590432,139.98030082414553,142.09445190429688,525500,[],[],[]
2026-02-20,142.0547550361601,144.0597244456509,140.94309602664507,143.97039794921875,664500,[],[],[]
2026-02-23,142.42199361111417,145.15152505885825,142.06467252487357,144.63539123535156,513500,[],[],[]
2026-02-24,144.98279666295065,145.8165408414096,142.77931908758302,143.06715393066406,429800,[],[],[]
2026-02-25,141.3500320156877,142.5907281428982,139.3847584456305,141.61801147460938,348900,[],[],[]
2026-02-26,142.45178416412276,142.8488009040386,139.9505362960431,140.73464965820312,331300,[],[],[]
2026-02-27,140.47658357934912,142.9381205686862,139.9505296087492,142.64036560058594,344600,[],[],[]
2026-03-02,141.93563886113196,142.2830398395081,140.56590547180699,141.60809326171875,335000,[],[],[]
2026-03-03,139.5931967078321,140.26814325067423,135.90088396317486,138.71974182128906,347300,[],[],[]
2026-03-04,138.302888395737,138.47162126788456,134.9976717766612,136.02000427246094,389000,[],[],[]
2026-03-05,134.98775502807862,135.32522078079646,133.40959299752922,133.72720336914062,452300,[],[],[]
2026-03-06,133.0026313554941,133.0026313554941,130.02496050425168,131.096923828125,398500,[],[],[]
2026-03-09,129.9951790988654,132.98276993154295,126.58078092139597,132.75448608398438,545700,[],[],[]
2026-03-10,132.3574660154593,133.1316591702968,130.42196798314936,131.14654541015625,503100,[],[],[]
2026-03-11,130.8190202738326,132.28800044532838,129.0721101988683,131.03738403320312,563800,[],[],[]
2026-03-12,130.29295237048805,131.80162799870666,127.68252279954662,127.90088653564452,620600,[],[],[]
2026-03-13,129.1812869710477,129.1812869710477,126.10436937058472,127.69245147705078,660600,['hammer'],['hammer'],[]
2026-03-16,128.51628506786432,130.4319280867629,125.06219070801843,128.08949279785156,370700,[],[],[]
2026-03-17,129.00263581888095,130.04482370856644,127.28551643200822,128.5361328125,276700,[],[],[]
2026-03-18,123.45423058912085,125.63786042046193,120.51626292882627,123.29542541503906,910500,[],[],[]
2026-03-19,122.0944332187195,123.89095888497408,120.54603921873606,123.04728698730467,518500,[],[],[]
2026-03-20,123.3351299924137,123.3351299924137,119.41452545613382,120.15894317626952,1481500,"['engulfing', 'RSI_OVERSOLD']",['RSI_OVERSOLD'],[]
2026-03-23,122.59071811756198,125.39964869362488,122.07458423299708,123.21602630615234,455200,[],[],[]
2026-03-24,122.24331527751687,124.28798013248849,121.95547285876512,123.22594451904295,405000,[],[],[]
2026-03-25,124.5063454916763,125.62793211237509,122.78921864642815,124.88351440429688,337200,[],[],[]
2026-03-26,124.2879863613124,126.39220231437442,123.1961751968319,123.76193237304688,442100,[],[],[]
2026-03-27,123.01751427118629,123.28550132328674,120.8537397563364,121.08202362060548,381400,[],[],[]
2026-03-30,121.64777727824666,123.0175107146969,120.19864504103799,122.44182586669922,562000,[],[],[]
2026-03-31,123.46415851677583,126.01502957768724,122.67010992701154,125.08202362060548,557800,[],[],[]
2026-04-01,126.3921998209656,127.68252689973863,125.38972274230008,125.8065948486328,380200,[],[],[]
2026-04-02,124.2085781211438,126.144061175827,123.32520302720032,125.07210540771484,297500,[],[],[]
2026-04-06,123.6626687607928,125.25076596450162,123.6626687607928,125.07210540771484,461100,[],[],[]
2026-04-07,124.38723692091199,126.22346576757813,123.87111063782318,124.67507934570312,376900,[],[],[]
2026-04-08,130.4021481364575,131.68254004802253,127.19617800807119,131.03738403320312,645200,[],[],[]
2026-04-09,130.24332882387228,131.45424955756675,126.39220287440348,130.42198181152344,424100,[],[],[]
2026-04-10,131.2656579543429,131.71230555728022,129.87608426848973,130.521240234375,407400,[],[],[]
2026-04-13,129.82646170678544,131.43439923843442,126.63042687940093,131.126708984375,396300,[],[],[]
2026-04-14,130.2532453341348,131.73216065356567,129.99518597737963,130.03488159179688,315500,[],[],[]
2026-04-15,129.83636721114993,130.0547309433663,127.64282491736233,128.68499755859375,407100,[],[],[]
2026-04-16,125.95548275515449,129.3599535123959,125.95548275515449,127.33512878417967,393800,[],[],[]
2026-04-17,128.68501330537714,131.31529853067389,128.68501330537714,129.65773010253906,401100,[],[],[]
2026-04-20,129.59817078840075,131.00759986778516,128.69494031122633,129.945556640625,403600,[],[],[]
2026-04-21,129.72719549997504,131.2656618627598,125.7470474243164,125.7470474243164,310200,[],[],[]
2026-04-22,126.33264680138942,126.33264680138942,122.04480110008107,123.62297058105467,458900,[],[],[]
2026-04-23,124.44679072012923,126.4914632367014,123.5137923135972,124.01007080078124,440800,[],[],[]
2026-04-24,123.4840092218708,123.4840092218708,121.65770056359271,123.15646362304688,440900,[],[],[]
2026-04-27,123.11676141393266,125.29046349458778,122.62048295333439,123.80162811279295,359700,[],[],[]
2026-04-28,125.18128618602748,125.70734016180099,122.79914797388655,124.8338851928711,354300,[],[],[]
2026-04-29,124.20857785922294,124.96292327213307,121.87607050853111,121.9852523803711,448400,[],[],[]
2026-04-30,122.51130595027863,125.14158341040142,120.97283963229867,122.75944519042967,764800,[],[],[]
2026-05-01,126.26316859263083,127.5237125861033,117.0224658192811,118.13412475585938,989400,['engulfing'],[],[]
2026-05-04,117.79666211505766,120.84381172589876,116.58574139374336,119.7023696899414,739600,[],[],[]
2026-05-05,120.00014032911528,122.78922301811379,119.92073395333378,121.1217269897461,628600,[],[],[]
2026-05-06,122.74597925597983,125.94466800462598,121.24129756714207,122.19791412353516,917000,[],[],[]
2026-05-07,122.5068295340525,126.024390540421,122.13813047351476,124.66918182373048,749700,[],[],[]
2026-05-08,124.7887560396552,125.41653350076692,119.96580580317682,120.56369018554688,794900,[],[],[]
2026-05-11,120.79288554794945,120.79288554794945,119.01915855027659,119.53732299804688,706100,[],[],[]
2026-05-12,120.02559365453986,120.43415267647455,116.72725880994862,117.6340560913086,696600,[],[],[]
2026-05-13,117.58423293808004,118.33159035082207,116.01976505817389,117.46465301513672,679500,[],[],[]
2026-05-14,118.31166263789775,119.73662439056807,116.62761485678394,117.5742645263672,531000,[],[],[]
2026-05-15,117.49455009110835,117.5045093824967,114.06666843041745,114.26596069335938,447000,[],[],[]
2026-05-18,115.19268785792542,116.90662874327985,114.76420263658683,115.40194702148438,433100,[],[],[]
2026-05-19,115.48166685737739,115.63113986049136,112.05378509001824,113.20970153808594,575800,[],[],[]
2026-05-20,113.66807993613209,115.04321484042607,111.1569623712229,114.85388946533205,562600,[],[],[]
2026-05-21,116.08951407739181,116.08951407739181,112.3726533287784,115.1030044555664,345600,[],[],[]
2026-05-22,115.39198749681161,116.38846404651632,114.30582410432685,115.82047271728516,405800,[],[],[]
2026-05-26,115.79056648170689,116.5578576455896,114.96349676302549,115.96993255615234,344500,[],[],[]
2026-05-27,116.52796630163347,117.69384200162882,114.32575411191588,114.89374542236328,464000,[],[],[]
2026-05-28,114.40547144179772,115.93007936247552,112.95061657623216,115.58131408691406,510100,[],[],[]
2026-05-29,114.654585617753,116.84683851674724,113.34920381323532,115.44180297851562,559600,[],[],[]
2026-06-01,114.28589767180515,114.72434218302038,111.63526640610466,111.9840316772461,706800,[],[],[]
2026-06-02,111.55554368794822,112.65167394505288,110.84804626905222,111.78473663330078,452400,[],[],[]
2026-06-03,111.29646253608041,113.61824699938005,111.29646253608041,112.1334991455078,372600,[],[],[]
2026-06-04,114.54497230632396,115.35212345281657,111.14699134502068,112.15343475341795,337600,[],[],[]
2026-06-05,112.69152600064275,114.18624078068319,111.58544405772435,112.96057891845705,466300,[],[],[]
2026-06-08,111.86445781905675,112.24311616501639,110.55906839000056,111.54558563232422,422200,[],[],[]
2026-06-09,112.88085932662787,115.74074968498803,112.27300803930217,115.49163055419922,444400,[],[],[]
2026-06-10,115.74074928767202,116.13934141606833,112.97054577921195,114.26596069335938,496800,[],[],[]
2026-06-11,114.70441351982217,116.59772043978678,113.85740999319692,116.1692352294922,395200,[],[],[]
2026-06-12,117.48458764205597,118.05257897569324,115.96993901734801,117.3052215576172,342600,[],[],[]
2026-06-15,118.28175862932589,120.31457162088157,117.14577601676719,117.66394805908205,576100,[],[],[]
2026-06-16,118.08246565966249,120.62348378448294,113.36912845320511,120.22489166259766,474700,[],[],[]
2026-06-17,121.19147655168898,121.91890015059502,119.03908362900876,119.56721496582033,680500,[],[],[]
2026-06-18,120.03556323646836,122.11820316081037,118.69032142639776,119.89605712890624,750600,[],[],[]
2026-06-22,119.13873446752552,120.58363003359557,118.46113010611296,119.57718658447266,468400,[],[],[]
2026-06-23,119.93591657137902,122.14809569936507,118.66042782074159,120.1850357055664,514100,[],[],[]
2026-06-24,121.55021059109052,124.60939323702422,121.34094382937873,123.84210205078124,404900,[],[],[]
2026-06-25,125.28699706013307,127.68850153642342,124.45991971828299,125.98452758789062,363500,[],[],[]
2026-06-26,125.49625757990485,126.67210019838984,124.32041496141991,125.53611755371094,727400,[],[],[]
2026-06-29,125.16742108368359,125.60587320209561,123.48337326752177,124.84854888916016,446600,[],[],[]
2026-06-30,124.16097333332937,125.86494727656601,123.50330278098957,124.75885772705078,329300,[],[],[]
2026-07-01,124.6791460908217,126.39307933521575,123.66273577346423,124.80868530273438,405600,[],[],[]
2026-07-02,125.82508774888942,127.77818082996899,124.96812492977865,126.5325927734375,468400,[],[],[]
2026-07-06,125.984527838973,126.60234602372707,123.74245564919633,125.56600952148438,431400,[],[],[]
2026-07-07,126.18381913439254,128.26645901687075,125.71548155556972,127.2400894165039,392700,[],[],[]
2026-07-08,126.00445175211414,126.26353777363066,122.60647080352628,123.77234649658205,537700,[],[],[]
2026-07-09,124.02146439127117,125.03787467960886,123.34386006655015,124.0114974975586,302100,[],[],[]
2026-07-10,124.55956853594634,126.53259544666133,123.93179104742977,125.08769989013672,385200,[],[],[]
2026-07-13,125.64571994715708,126.72191640641844,123.96167980892794,124.449951171875,391600,[],[],[]
2026-07-14,127.96751666781716,128.95403392567474,127.50913836732852,127.82801055908205,739900,[],[],['shooting_star']
2026-07-15,129.25298235497795,130.3092450844948,127.99741214779503,128.65509033203125,466800,[],[],[]
2026-07-16,129.56187796196684,134.6040465870392,129.56187796196684,134.27520751953125,579300,[],[],[]
2026-07-17,135.351401437915,136.16850424088722,130.24944675099272,132.1427459716797,530800,[],[],[]
2026-07-20,131.9135687694055,131.9135687694055,129.2928306127641,129.4522705078125,422900,[],[],[]
2026-07-21,130.07008242817932,130.59821378154385,127.46927803301473,128.45579528808594,328800,[],[],[]
2026-07-22,129.35261865201468,130.02025611657908,128.02730301458666,128.71487426757812,309900,[],[],[]
2026-07-23,128.39600579528673,129.36258923692642,127.71839385448645,128.54547119140625,382800,[],[],[]
2026-07-24,129.13338680160044,132.26232242316664,129.13338680160044,131.8936309814453,335900,[],[],[]
2026-07-27,132.72071171310446,133.60757521827134,132.19258036761323,132.9000701904297,411200,[],[],[]
2026-07-28,134.9030016293852,137.54365843276426,134.3549364800917,137.32443237304688,593100,[],[],[]
2026-07-29,135.52081464440568,136.11870667337666,134.0759266469227,135.75,580000,[],[],[]
2026-07-30,136.39999389648438,136.39999389648438,133.11000061035156,133.8699951171875,627000,[],[],[]
2026-07-31,137.4600067138672,139.57000732421875,132.1699981689453,133.9600067138672,886500,[],[],[]
2026-08-03,137.22999572753906,138.4600067138672,134.52999877929688,136.77000427246094,642500,[],[],[]
2026-08-04,137.8699951171875,137.8699951171875,135.33999633789062,136.17999267578125,511900,[],[],[]
2026-08-05,136.8699951171875,136.8800048828125,134.8699951171875,136.75,454800,[],[],[]
2026-08-06,138.6199951171875,138.69000244140625,134.6699981689453,135.77999877929688,545000,[],[],[]
2026-08-07,135.05999755859375,137.67999267578125,134.7100067138672,135.4199981689453,686300,[],[],[]
2026-08-10,134.38999938964844,134.52000427246094,132.92999267578125,133.67999267578125,446700,[],[],[]
2026-08-11,132.8000030517578,135.0500030517578,132.8000030517578,134.75,343700,[],[],[]
2026-08-12,133.50999450683594,134.47000122070312,132.27000427246094,133.14999389648438,315100,[],[],[]
2026-08-13,134.44000244140625,134.44000244140625,132.08999633789062,132.57000732421875,490800,[],[],[]
2026-08-14,132.08999633789062,132.75,129.55999755859375,132.10000610351562,381600,[],[],[]
2026-08-17,133.16000366210938,133.16000366210938,130.22000122070312,131.74000549316406,374500,[],[],[]
2026-08-18,132.75,133.47000122070312,131.22000122070312,131.72999572753906,500100,[],[],[]
2026-08-19,133.0500030517578,134.3800048828125,132.2899932861328,132.92999267578125,390400,[],[],[]
2026-08-20,131.4499969482422,133.8300018310547,130.89999389648438,132.9600067138672,420900,[],[],[]
2026-08-21,134.0399932861328,135.1300048828125,133.10000610351562,134.8000030517578,400500,[],[],[]
2026-08-24,135.36000061035156,136.33999633789062,134.38999938964844,134.75,282300,[],[],[]
2026-08-25,135.58999633789062,135.58999633789062,133.22000122070312,134.72000122070312,280900,[],[],[]
2026-08-26,135.0,136.63999938964844,134.44000244140625,135.24000549316406,281400,[],[],[]
2026-08-27,133.77999877929688,134.69000244140625,132.25999450683594,132.86000061035156,295700,[],[],[]
2026-08-28,133.5500030517578,133.66000366210938,132.0399932861328,132.99000549316406,325400,[],[],[]
2026-08-31,132.2100067138672,132.44000244140625,130.8300018310547,131.6199951171875,389200,[],[],[]
2026-09-01,131.64999389648438,132.07000732421875,130.77999877929688,130.9199981689453,418200,[],[],[]
2026-09-02,131.27000427246094,132.25999450683594,129.69000244140625,130.3300018310547,472500,[],[],[]
2026-09-03,130.64999389648438,130.64999389648438,126.98999786376952,128.30999755859375,340000,[],[],[]
2026-09-04,127.52999877929688,128.47000122070312,126.52999877929688,127.41000366210938,324000,[],[],[]
2026-09-08,126.1999969482422,126.98999786376952,124.25,124.33999633789062,362200,[],[],[]
2026-09-09,123.97000122070312,123.97000122070312,121.08999633789062,122.11000061035156,383000,[],[],[]
2026-09-10,122.0500030517578,123.12000274658205,120.73999786376952,123.0500030517578,435100,[],[],[]
2026-09-11,124.8499984741211,125.5999984741211,123.05999755859376,124.83999633789062,491900,[],[],[]
2026-09-14,125.27999877929688,126.20999908447266,124.0,124.91000366210938,423200,[],[],[]
2026-09-15,124.8499984741211,124.86000061035156,123.41000366210938,124.68000030517578,474700,[],[],[]
2026-09-16,124.83999633789062,126.25,123.1999969482422,124.70999908447266,461600,[],[],[]
2026-09-17,125.66000366210938,126.22000122070312,124.5500030517578,125.5,551500,[],[],[]
2026-09-18,125.48999786376952,125.7699966430664,124.41000366210938,124.44000244140624,821300,[],[],[]
2026-09-21,124.83999633789062,125.9800033569336,123.31999969482422,123.4000015258789,424400,[],[],[]
2026-09-23,125.43000030517578,125.72000122070312,124.5,124.73999786376952,335300,[],[],[]
2026-09-24,124.51000213623048,124.98999786376952,122.74019622802734,123.08499908447266,137386,[],[],[]
