Date,Open,High,Low,Close,Volume,signal,bull_patterns,bear_patterns
2022-12-04,100.04572066814573,103.38882437883025,96.67403792644355,102.91259765625,1011800,[],[],[]
2022-12-11,101.77919660758239,103.7983895457478,100.36003233426607,102.92212677001952,1061900,[],[],[]
2022-12-18,103.30310708689835,105.82710364711284,101.33152494532682,102.33160400390624,1610600,[],[],[]
2022-12-25,102.21730864401849,105.53186251679956,100.7505293918553,104.7794189453125,1226900,[],[],[]
2023-01-01,104.67464490971757,106.58907506047443,103.82695844710454,104.75083923339844,565400,[],[],[]
2023-01-08,105.32233250252861,108.96068643196966,103.93173983629711,108.63684844970705,947900,[],[],[]
2023-01-15,109.17975948396624,110.17983872496029,107.05579514159474,108.55113983154295,822900,[],[],[]
2023-01-22,108.75114549050157,109.15118300044956,105.08420639203251,107.90345764160156,681600,[],[],[]
2023-01-29,107.81773487019247,108.32254133655589,105.23660700955195,107.3700942993164,862600,[],[],[]
2023-02-05,106.39857721635475,113.0849594481918,106.1604638467183,110.29462432861328,1577700,[],[],[]
2023-02-12,109.47281770745725,110.3710781657817,103.0989987484027,104.36038208007812,906400,[],[],[]
2023-02-19,104.54196298790713,115.89439580732343,103.37612367565919,111.50822448730467,1425500,[],[],[]
2023-02-26,111.32666788917305,111.32666788917305,107.97255173050836,109.67350769042967,1133100,[],[],[]
2023-03-05,110.69596405861891,114.9101333618164,110.38062369741955,114.9101333618164,1101900,[],[],[]
2023-03-12,114.7954762255109,114.85281680895056,107.29406516531567,107.56163024902344,1185800,[],[],[]
2023-03-19,106.50092801365264,110.14173372296572,105.06751855565048,105.84156799316406,1366100,[],[],[]
2023-03-26,106.8353955817937,109.14792235083867,105.1344167285393,107.95342254638672,770000,[],[],[]
2023-04-02,108.42165867301226,113.01806946148729,108.11587800868477,112.9416275024414,852900,[],[],[]
2023-04-09,112.69315884805901,114.0405524441083,111.59421681828297,113.77298736572266,743200,[],[],[]
2023-04-16,113.12318198719555,114.72857229893738,112.65495727737223,113.9067611694336,775000,[],[],[]
2023-04-23,114.19345332855825,115.69372693312367,112.80784595529133,115.23503875732422,1295300,[],[],[]
2023-04-30,115.49304662087705,116.02817672029481,109.53970812269817,113.2474136352539,1592900,[],[],[]
2023-05-07,114.10746366249627,117.06024512158423,110.59085132700137,116.6637191772461,1300200,[],[],[]
2023-05-14,116.81710292974779,117.27723513087143,113.59614583559885,115.79136657714844,985500,[],[],[]
2023-05-21,115.59965353873214,116.05979304817764,112.5991703111704,114.16172790527344,748600,[],[],[]
2023-05-28,113.75910927976403,114.57393249369476,108.27580441962905,109.43573760986328,1089800,[],[],[]
2023-06-04,109.48366159918592,110.00131821912187,107.06795712680015,109.43573760986328,1020600,[],[],[]
2023-06-11,109.09064576236622,111.19000959428463,108.20871233570043,110.058837890625,1333900,[],[],[]
2023-06-18,109.93422789750664,112.35953190905539,109.56995597087156,112.30201721191406,2256700,[],[],[]
2023-06-25,112.04316534807104,112.11026825332267,107.43223073089834,108.16078186035156,1247000,[],[],[]
2023-07-02,108.3812734708658,111.46800901708939,107.82526441019587,111.06539154052734,1071100,[],[],[]
2023-07-09,110.63401978446419,112.17738682073548,107.01044675041872,109.0810546875,1081000,[],[],[]
2023-07-16,108.62091826500269,113.92207485386147,108.33333747818335,113.45235443115234,1135900,[],[],[]
2023-07-23,113.50027280330323,115.38876253213712,112.31158957695553,114.88068389892578,1030600,[],[],[]
2023-07-30,115.05323058293628,122.15020668044086,113.79744441906725,119.0625457763672,1641800,[],[],[]
2023-08-06,118.81245087262072,119.20682863562156,115.40736777057225,116.0422134399414,1753400,[],[],[]
2023-08-13,116.12880236645722,118.86055171557352,115.14766293103469,117.9371337890625,1140400,[],[],[]
2023-08-20,117.37923848241955,118.71625224874127,116.75399923570933,118.5912094116211,1315500,[],[],[]
2023-08-27,118.45655872220827,122.81390878136904,117.64856721961152,122.6792449951172,1864800,[],[],[]
2023-09-03,122.76582157262821,128.69103845879502,122.76582157262821,127.49830627441406,1661000,[],[],[]
2023-09-10,126.66146169919045,126.95003116428316,120.35146405181672,120.53421783447266,1183800,[],[],[]
2023-09-17,122.1501993465401,123.05437674267792,120.34185642798873,121.13060760498048,1677900,[],[],[]
2023-09-24,121.54423019858976,121.54423019858976,117.4561947232151,118.00447082519533,1276800,[],[],[]
2023-10-01,117.34077819162174,121.99632512715142,116.84059939153208,120.27454376220705,1718400,[],[],[]
2023-10-08,119.78395548707735,121.86165089685025,117.66781004256848,121.59232330322266,1647000,[],[],[]
2023-10-15,121.02480932619932,123.70847018445959,120.29377235151563,121.16908264160156,1324800,[],[],[]
2023-10-22,122.50611121132462,123.44875352595632,117.28305556639174,117.56200408935548,1767300,[],[],[]
2023-10-29,117.08107007558768,121.01346037392442,116.15901667481168,116.94074249267578,2062400,[],[],[]
2023-11-05,117.66457150071054,121.57321603943892,116.63191847013124,120.974853515625,1728800,[],[],[]
2023-11-12,120.89764432950585,121.3994961613825,119.5658112399359,121.33193969726562,868500,[],[],[]
2023-11-19,121.0134629802709,124.57466044313414,120.02906768075306,123.4647979736328,1218800,[],[],[]
2023-11-26,123.00154326553827,124.69047458350227,122.01714809702534,124.04386901855467,615200,[],[],[]
2023-12-03,123.35863193285542,124.05350585054758,120.45370267838986,123.62887573242188,1436600,[],[],[]
2023-12-10,123.0015610955125,124.38165691773952,121.23542230546798,122.87608337402344,1069300,[],[],[]
2023-12-17,122.81819302140137,125.47219566747552,121.57322508471094,121.58287811279295,2099200,[],[],[]
2023-12-24,122.28739523266057,123.65782739941073,120.49230482765589,121.8627471923828,1980100,[],[],[]
2023-12-31,121.73727265338081,122.44179634238444,119.2473336428409,119.30524444580078,1214900,[],[],[]
2024-01-07,118.33048400507987,122.81818962646165,118.0216534155559,119.864990234375,1621100,[],[],[]
2024-01-14,119.73953213187558,123.5034003735672,118.09887089459964,122.01715087890624,1437100,[],[],[]
2024-01-21,121.48634060646513,126.87160167039863,121.12925962608607,126.23463439941406,1456600,[],[],[]
2024-01-28,126.33113669376289,127.96216113643405,125.78104614923554,127.1032257080078,1330600,[],[],['shooting_star']
2024-02-04,126.47590503677381,128.53437487913746,124.58451763837662,125.94953918457033,1597300,[],[],[]
2024-02-11,125.01049634153881,134.76892573911803,123.96494875503912,134.5269012451172,2353800,[],[],[]
2024-02-18,134.72051017566284,135.98871608812559,130.27694117211416,133.1134490966797,2027500,[],[],[]
2024-02-25,132.76494422449613,137.87650772141765,132.58100326162543,136.85032653808594,1135300,[],[],[]
2024-03-03,136.9858566979064,137.64413944601768,134.88510115200842,135.81442260742188,1035400,[],[],[]
2024-03-10,136.20170952806765,140.50974321124528,136.0758520614475,138.52511596679688,1069800,[],[],[]
2024-03-17,138.23467236717613,138.80586127112414,135.2820025310812,136.50180053710938,1640400,[],[],[]
2024-03-24,136.43404366008966,137.9055476013454,134.44943456936542,137.07298278808594,1304500,[],[],[]
2024-03-31,136.69543011458305,140.71303575776633,136.66638835730595,139.2996063232422,1096500,[],[],[]
2024-04-07,139.20275685009975,139.20275685009975,135.40784705367142,137.20851135253906,1357600,[],[],[]
2024-04-14,137.15040168122644,137.83775755940698,131.62259662579817,132.82302856445312,1320300,[],[],[]
2024-04-21,134.18804610778258,135.4562433737092,132.9779144955909,134.89474487304688,1689900,[],[],[]
2024-04-28,135.09808150736472,144.19403432783037,134.80764914726078,139.16458129882812,2459100,[],[],[]
2024-05-05,140.68896186966708,143.71829961506626,139.8733594266455,142.54347229003906,2281200,[],[],[]
2024-05-12,143.46584874866832,147.32047837661355,142.88329461371845,144.1746368408203,1362000,[],[],['shooting_star']
2024-05-19,144.21346995257653,145.13585840929454,142.17450084023903,143.37844848632812,921200,[],[],[]
2024-05-26,143.30079134207162,144.62126725880347,142.7667722722628,143.7862548828125,1061100,[],[],[]
2024-06-02,143.32990795502417,143.5338036875814,140.3102801303625,143.3978729248047,1235100,[],[],[]
2024-06-09,144.18433298516325,144.18433298516325,141.17443223714181,141.320068359375,1160000,[],[],[]
2024-06-16,140.62097903208888,142.27161871575709,139.5043934580447,140.54330444335938,868700,[],[],[]
2024-06-23,140.65981624752195,143.39786385052693,140.3685466316063,142.58230590820312,1167700,[],[],[]
2024-06-30,142.94153910100914,143.92218146002028,136.01874245488284,136.7178192138672,1382200,[],[],[]
2024-07-07,137.2712545772139,137.36833951304502,133.75645612270853,136.80520629882812,916100,[],[],[]
2024-07-14,137.53339169445843,141.26180800557879,135.6886339831031,140.38795471191406,1138100,[],[],[]
2024-07-21,140.55302268784044,142.97068107315562,138.98010738595784,141.69874572753906,1426400,[],[],[]
2024-07-28,141.74729152284237,147.3532937123029,137.5452948637296,142.84378051757812,1841700,[],[],[]
2024-08-04,142.76586110666832,145.64882955447564,140.0094955037422,141.89901733398438,1631300,[],[],[]
2024-08-11,139.69780574748174,143.42813984840885,135.85059153457982,140.2042694091797,1809900,[],[],[]
2024-08-18,140.22377593602033,143.5060614579835,139.05500395736158,142.90220642089844,1076900,[],[],[]
2024-08-25,142.51262572122243,146.61307569653127,142.12302517326572,146.52542114257812,1267500,[],[],[]
2024-09-01,146.75915922191393,149.4473216241324,145.94101293699603,149.20382690429688,1058400,[],[],[]
2024-09-08,148.15196236389943,149.13565190287514,145.70725993860023,148.4149169921875,1057900,[],[],[]
2024-09-15,148.59998302653705,149.0772232245831,144.76250795288001,148.3175048828125,916600,[],[],['hanging_man']
2024-09-22,149.0577202574082,154.67762550954814,147.9181849513857,151.85305786132812,1732700,[],[],[]
2024-09-29,152.1063064527266,157.34631621260434,150.71352354488388,155.72950744628906,1572000,[],[],[]
2024-10-06,155.14512315625234,157.26839101232096,152.56409002818182,156.40155029296875,1386400,[],[],[]
2024-10-13,155.24251230852914,157.70666566406467,153.0121203289736,157.34629821777344,944700,[],[],[]
2024-10-20,160.6968029731812,165.2452816100452,159.20661626974442,164.24209594726562,1606700,[],[],[]
2024-10-27,164.0862524476999,165.87558734575057,160.52148906409494,164.95758056640625,1830700,[],[],[]
2024-11-03,165.92439581087592,167.3990718969887,163.69776911458624,165.44589233398438,1624600,[],[],[]
2024-11-10,165.66072177477935,173.6786238548333,163.81495853194275,171.6472930908203,1383600,[],[],[]
2024-11-17,172.19418764538844,173.86416596467407,162.28168847937133,162.59420776367188,1356000,[],[],[]
2024-11-24,162.49655239968402,168.04362806955587,160.4847578059515,167.49671936035156,1340500,[],[],[]
2024-12-01,168.02409483029683,169.94799873062775,167.15494495593342,168.9127960205078,694900,[],[],['shooting_star']
2024-12-08,168.9323215272417,169.39130847544556,166.5396745813458,167.1451416015625,958600,[],[],[]
2024-12-15,167.54556559711838,170.02613822467129,164.25441250187913,166.21739196777344,1338800,[],[],[]
2024-12-22,166.15881199108833,166.93031984565312,153.7852597851201,154.4786376953125,2351500,[],[],[]
2024-12-29,153.49229809203675,155.89472747069453,153.28722033295332,154.4493408203125,604900,[],[],[]
2025-01-05,153.32626257404377,154.54700411025723,149.29290988290282,151.8613739013672,1028900,[],[],[]
2025-01-12,150.39648145810642,152.40826189282907,147.89638648827628,149.85934448242188,1309600,[],[],[]
2025-01-19,149.35151938743235,154.25403847264764,149.35151938743235,152.43756103515625,1330500,[],[],[]
2025-01-26,153.0528143054371,156.98849010418607,153.0528143054371,154.59584045410156,1030300,[],[],[]
2025-02-02,154.54699783386062,156.59788985115384,152.9161063496536,153.4727325439453,1895400,[],[],[]
2025-02-09,150.9628742010352,156.54649741836073,139.11328743464438,140.22979736328125,2597700,[],[],[]
2025-02-16,141.28754664505917,142.31591505799216,137.0467400415367,141.80662536621094,2601400,[],[],[]
2025-02-23,141.80661410840983,144.45100897747918,140.93495304164546,143.3246612548828,1555600,[],[],[]
2025-03-02,143.16798872554835,146.10617230747383,141.38549716336897,143.7262420654297,2037100,[],[],[]
2025-03-09,143.94169395000412,150.20003950079644,142.14940329945776,149.63198852539062,2281200,[],[],[]
2025-03-16,148.93660655516885,150.82683175384557,140.79782663230102,143.63809204101562,1456800,[],[],[]
2025-03-23,143.49118010431383,144.95048427871978,139.4266801328764,141.83599853515625,1659400,[],[],[]
2025-03-30,142.74685366750688,146.90927723620769,141.9241652673277,143.90252685546875,1971900,[],[],[]
2025-04-06,143.5597480313838,148.01600308998087,137.1544807452422,137.29159545898438,1744600,[],[],[]
2025-04-13,133.5306985896499,141.7282680233526,128.15383009223805,141.140625,2107500,[],[],[]
2025-04-20,142.79581425798335,143.52057023933776,137.8107011490633,140.8664093017578,1198300,[],[],[]
2025-04-27,140.347331860725,149.84745131334506,138.19266546008294,145.98863220214844,1691400,[],[],[]
2025-05-04,146.71339348881767,150.29848992197137,144.17675754933848,149.31614685058594,2028200,[],[],[]
2025-05-11,148.7562234700928,151.84077180787722,146.78170385931236,150.6128387451172,1432100,[],[],[]
2025-05-18,153.0392239180569,154.3752135929202,148.30432613531156,154.23768615722656,1598700,[],[],[]
2025-05-25,153.5991717253283,157.43029958325823,151.53624028030902,153.18658447265625,1432700,[],[],[]
2025-06-01,154.25734853178614,156.03538034918074,153.77597547059216,155.60313415527344,1284400,[],[],[]
2025-06-08,154.75831599595244,156.26131463804512,146.41825295522108,150.60302734375,2326400,[],[],[]
2025-06-15,150.0136191980335,151.88987086726192,148.06858195648448,148.49099731445312,1791100,[],[],[]
2025-06-22,148.5695758002576,150.20025395390124,146.35931206442524,147.64617919921875,1679600,[],[],[]
2025-06-29,146.85047583401547,153.35359852041546,146.85047583401547,153.0687255859375,2169100,[],[],[]
2025-07-06,153.27499173184543,158.51089020387988,151.8800663373244,158.196533203125,1182400,[],[],[]
2025-07-13,158.1081326731942,159.7093565965001,153.86440405350666,155.11196899414062,1563000,[],[],[]
2025-07-20,154.3654022940558,156.13362296539574,150.83880194564915,153.6188201904297,1433500,[],[],[]
2025-07-27,153.65812006565358,161.82979531304568,152.48910879729814,158.58885192871094,1834500,[],[],[]
2025-08-03,158.79572064833397,159.5640858506177,138.9856590147076,139.24179077148438,2969400,[],[],[]
2025-08-10,140.98538123418317,140.98538123418317,135.03547356824112,138.65074157714844,2887800,[],[],[]
2025-08-17,139.222090228796,139.5077583171329,134.405016641309,136.65103149414062,3011800,[],[],[]
2025-08-24,136.81847442171076,141.19225798353852,135.3014499206359,139.32058715820312,2008700,[],[],[]
2025-08-31,138.8674588166062,139.4979127296023,135.35069910089788,137.1928253173828,2109300,[],[],[]
2025-09-07,135.37041901487592,138.7197049562119,132.43485133034417,136.55250549316406,1535500,[],[],[]
2025-09-14,136.52295752982062,137.91193130257207,132.83875165602893,133.2130584716797,2677100,[],[],[]
2025-09-21,133.9420357302436,135.0256121123868,131.35126046807318,132.4348602294922,2282200,[],[],[]
2025-09-28,132.11962230163485,132.92739938115005,128.32705085173455,130.31690979003906,1738200,[],[],[]
2025-10-05,130.42527680922657,132.38559368725765,129.4007947965638,131.23304748535156,1961600,[],[],[]
2025-10-12,130.90797079558112,131.21334480064905,127.8738925263408,128.97718811035156,2227400,[],[],[]
2025-10-19,129.03630601031335,130.37602238234368,125.94313774513942,127.41092681884766,1779500,[],[],[]
2025-10-26,127.67688307805489,130.13960588126338,126.11060134384137,127.42807006835938,1777500,[],[],[]
2025-11-02,127.68513804202082,128.43657062662018,102.06703450151069,114.70305633544922,5047100,['RSI_OVERSOLD'],['RSI_OVERSOLD'],[]
2025-11-09,114.78215353846565,115.64235639440284,107.0700310437489,114.91068267822266,5164500,[],[],[]
2025-11-16,114.68328006091402,120.50692184487994,112.7157010753592,117.27376556396484,2746900,[],[],[]
2025-11-23,117.15511423578637,120.86286792776396,116.04773500908138,120.1509780883789,3253000,[],[],[]
2025-11-30,119.48852930748254,124.65961521692694,119.08315219875637,123.34459686279295,2137300,[],[],[]
2025-12-07,123.4731246454934,123.55222519221778,119.26112254625718,120.53659057617188,2650300,[],[],[]
2025-12-14,119.5577382392565,120.72444490270962,113.83297205936894,120.10154724121094,2917700,[],[],[]
2025-12-21,120.11144352151474,123.19627887906456,118.17351257639861,120.02245330810548,3558200,[],[],[]
2025-12-28,120.02244905131522,122.30642273678363,119.70605439556444,121.86149597167967,1343500,[],[],[]
2026-01-04,121.90103810595791,122.90954365167187,119.4193181494529,121.15949249267578,1299400,[],[],[]
2026-01-11,120.38828287586784,123.5621198728979,116.2850330968153,122.4547348022461,2450500,[],[],[]
2026-01-18,122.60303947816966,125.78676843900955,121.15948917361368,123.30504608154295,2185300,[],[],[]
2026-01-25,123.49289879622381,124.98588806730807,122.04934781961309,124.58051300048828,1495300,[],[],[]
2026-02-01,124.99577817123767,125.55935637440062,121.20892754069328,123.54234313964844,1865000,[],[],[]
2026-02-08,122.8007834281537,134.97782150042084,121.05225107397254,133.31031799316406,4927100,[],[],[]
2026-02-15,132.5857587104382,141.86615414747763,132.2582131007177,141.51876831054688,3294400,[],[],[]
2026-02-22,138.2234773285034,144.0597244456509,138.2234773285034,143.97039794921875,2386700,[],[],[]
2026-03-01,142.42199361111417,145.8165408414096,139.3847584456305,142.64036560058594,1968100,[],[],[]
2026-03-08,141.93563886113196,142.2830398395081,130.02496050425168,131.096923828125,1922100,[],[],[]
2026-03-15,129.9951790988654,133.1316591702968,126.10436937058472,127.69245147705078,2893800,[],[],[]
2026-03-22,128.51628506786432,130.4319280867629,119.41452545613382,120.15894317626952,3557900,[],[],[]
2026-03-29,122.59071811756198,126.39220231437442,120.8537397563364,121.08202362060548,2020900,[],[],[]
2026-04-05,121.64777727824666,127.68252689973863,120.19864504103799,125.07210540771484,1797500,[],[],[]
2026-04-12,123.6626687607928,131.71230555728022,123.6626687607928,130.521240234375,2314700,[],[],[]
2026-04-19,129.82646170678544,131.73216065356567,125.95548275515449,129.65773010253906,1913800,[],[],[]
2026-04-26,129.59817078840075,131.2656618627598,121.65770056359271,123.15646362304688,2054400,[],[],[]
2026-05-03,123.11676141393266,127.5237125861033,117.0224658192811,118.13412475585938,2916600,[],[],[]
2026-05-10,117.79666211505766,126.024390540421,116.58574139374336,120.56369018554688,3829800,[],[],[]
2026-05-17,120.79288554794945,120.79288554794945,114.06666843041745,114.26596069335938,3060200,[],[],[]
2026-05-24,115.19268785792542,116.90662874327985,111.1569623712229,115.82047271728516,2322900,[],[],[]
2026-05-31,115.79056648170689,117.69384200162882,112.95061657623216,115.44180297851562,1878200,[],[],[]
2026-06-07,114.28589767180515,115.35212345281657,110.84804626905222,112.96057891845705,2335700,[],[],[]
2026-06-14,111.86445781905675,118.05257897569324,110.55906839000056,117.3052215576172,2101200,[],[],[]
2026-06-21,118.28175862932589,122.11820316081037,113.36912845320511,119.89605712890624,2481900,[],[],[]
2026-06-28,119.13873446752552,127.68850153642342,118.46113010611296,125.53611755371094,2478300,[],[],[]
2026-07-05,125.16742108368359,127.77818082996899,123.48337326752177,126.5325927734375,1649900,[],[],[]
2026-07-12,125.984527838973,128.26645901687075,122.60647080352628,125.08769989013672,2049100,[],[],[]
2026-07-19,125.64571994715708,136.16850424088722,123.96167980892794,132.1427459716797,2708400,[],[],[]
2026-07-26,131.9135687694055,132.26232242316664,127.46927803301473,131.8936309814453,1780300,[],[],[]
2026-08-02,132.72071171310446,139.57000732421875,132.1699981689453,133.9600067138672,3097800,[],[],['shooting_star']
2026-08-09,137.22999572753906,138.69000244140625,134.52999877929688,135.4199981689453,2840500,[],[],[]
2026-08-16,134.38999938964844,135.0500030517578,129.55999755859375,132.10000610351562,1977900,[],[],[]
2026-08-23,133.16000366210938,135.1300048828125,130.22000122070312,134.8000030517578,2086400,[],[],[]
2026-08-30,135.36000061035156,136.63999938964844,132.0399932861328,132.99000549316406,1465700,[],[],[]
2026-09-06,132.2100067138672,132.44000244140625,126.52999877929688,127.41000366210938,1943900,[],[],[]
2026-09-13,126.1999969482422,126.98999786376952,120.73999786376952,124.83999633789062,1672200,[],[],[]
2026-09-20,125.27999877929688,126.25,123.1999969482422,124.44000244140624,2732300,[],[],[]
2026-09-27,124.83999633789062,125.9800033569336,122.74019622802734,123.08499908447266,897086,[],[],[]
