Date,Open,High,Low,Close,Volume,signal,bull_patterns,bear_patterns
2017-03-05,65.46102055036486,67.35153834649027,65.32852528965569,67.17485809326172,1639100,[],[],[]
2017-03-12,66.67131496397572,68.02292623590675,66.41511174549183,67.83740997314453,1967000,[],[],[]
2017-03-19,67.84624404368728,68.63246482839895,66.56531244115223,68.09358215332031,1304700,[],[],[]
2017-03-26,68.17312070149643,68.79151512543244,67.4222043286854,67.687255859375,989400,[],[],[]
2017-04-02,66.97168516710914,68.35861115800174,66.97168516710914,68.01409149169922,962200,[],[],[]
2017-04-09,67.96994173436258,68.42931449768169,66.6889899899543,67.2808609008789,1624900,[],[],[]
2017-04-16,67.08650199017534,67.99642867878372,66.9274845715723,66.96282196044922,907400,[],[],[]
2017-04-23,67.16602687420685,69.47175066369059,67.03351330482485,68.89752960205078,1221600,[],[],[]
2017-04-30,69.76325767216166,71.14140646124031,68.57066324742132,70.93822479248047,1759500,[],[],[]
2017-05-07,71.02688437874109,72.88063402622183,69.9714373836287,72.65003204345703,2711400,[],[],[]
2017-05-14,72.80077110640072,73.65225983728111,72.48146894451342,73.11122131347656,1523900,[],[],[]
2017-05-21,73.11126328129586,73.59908831797802,71.94933380425977,73.04914093017578,1346300,[],[],[]
2017-05-28,72.95157956747852,75.06251876087767,72.7741924151023,74.83191680908203,991500,[],[],[]
2017-06-04,74.61904406288711,76.9251011352925,74.32635592930733,76.57032012939453,953100,[],[],[]
2017-06-11,76.36632194757632,77.24439972843437,75.26649429357019,75.96720123291016,1321600,[],[],[]
2017-06-18,75.60355091703957,76.96056200555202,75.27538403080798,76.23328399658203,1280000,[],[],[]
2017-06-25,76.56145216200652,77.99830801011566,76.21554252670364,76.98719787597656,1233100,[],[],[]
2017-07-02,77.13796234631977,77.68786644351698,76.08250894317325,77.04041290283203,1099100,[],[],[]
2017-07-09,77.35085090454356,78.5393808985166,76.66790077285775,78.13137817382812,1001800,[],[],[]
2017-07-16,78.00719687958173,79.79883106732272,77.59033634653444,79.31987762451172,1153600,[],[],[]
2017-07-23,79.3819593158441,80.52612674099343,78.93848497155918,79.39083099365234,1567700,[],[],[]
2017-07-30,79.16829915089704,80.07622661860397,71.94931779474157,73.26670837402344,2548800,[],[],[]
2017-08-06,73.20443873225321,74.32600672325661,71.82473849053358,73.31123352050781,2264900,[],[],[]
2017-08-13,73.48036235012589,73.83640953807186,72.46560245609935,73.11539459228516,1003000,[],[],[]
2017-08-20,73.55156161963919,74.61974973111506,72.67031400228903,73.12428283691406,999700,[],[],[]
2017-08-27,73.04420186206434,73.64061529726538,72.05613830613294,73.33796691894531,1007000,[],[],[]
2017-09-03,73.56936986134122,74.77104857517779,72.5368140611878,74.66423034667969,1125200,[],[],[]
2017-09-10,74.5218175221626,74.9312954655923,73.27561880430338,74.61084747314453,881400,[],[],[]
2017-09-17,75.05588224858832,76.05287758999212,74.77104046133455,75.40303802490234,1219400,[],[],[]
2017-09-24,75.63447068741462,77.22782583440969,75.42973746500574,76.30205535888672,1015100,[],[],[]
2017-10-01,76.32877897065963,77.89542167154056,75.97272499915249,76.82723999023438,1144300,[],[],[]
2017-10-08,77.27229882034203,79.08817689312798,77.03196634861912,78.84783935546875,1039400,[],[],[]
2017-10-15,78.93687313579777,79.55103707543536,78.50069496898983,79.07926177978516,843700,[],[],[]
2017-10-22,79.1504751257737,79.5510513927247,78.30485309057595,79.39972686767578,905000,[],[],[]
2017-10-29,79.36412689657125,79.82699228319136,76.45339511946591,78.2692642211914,1576000,[],[],[]
2017-11-05,77.8509011646349,78.72979947238957,76.77384285088398,77.675537109375,1489600,[],[],[]
2017-11-12,77.74701203944748,77.80062298236777,75.24538746988567,75.86186218261719,1212300,[],[],[]
2017-11-19,75.60276887301238,77.28240795952017,75.60276887301238,76.5229721069336,931400,[],[],[]
2017-11-26,76.48723288273212,77.56829971330038,76.03158107487269,77.05903625488281,975400,[],[],[]
2017-12-03,77.16625080943398,79.5070610087461,77.16625080943398,78.26518249511719,1195700,[],[],[]
2017-12-10,78.43495262611472,79.65894457936454,78.0150355160154,78.5332260131836,1307800,[],[],[]
2017-12-17,78.50643364634264,78.50643364634264,76.56765857140373,77.71126556396484,1863400,[],[],[]
2017-12-24,77.95247839873134,78.52427826803532,76.32643604785416,76.74635314941406,1236400,[],[],[]
2017-12-31,76.64806420528964,77.72913022778889,75.9958704073346,77.08585357666016,600900,[],[],[]
2018-01-07,77.22880807361797,78.56002721991426,76.65700616195791,77.64871978759766,983100,[],[],[]
2018-01-14,77.60407108641593,78.40816388243033,76.08520679512262,77.33601379394531,1275600,[],[],[]
2018-01-21,77.15733254314685,79.24797056324357,76.84463049976453,79.16756439208984,902700,[],[],[]
2018-01-28,79.16757698079311,79.96271340950403,77.14840227236141,79.64107513427734,1329100,[],[],[]
2018-02-04,79.27477826950499,79.72149739082975,76.70450627882416,76.93765258789062,1556200,[],[],[]
2018-02-11,76.3099339465777,77.11697340865858,71.70982703466727,73.67362213134766,1806900,[],[],[]
2018-02-18,74.03229945597484,82.78419372997539,73.1624905537545,82.34479522705078,2585900,[],[],[]
2018-02-25,81.81572001317694,82.74830100976376,80.6410508922017,81.59156036376953,1159900,[],[],[]
2018-03-04,81.85159085866762,82.03093675127838,79.1794065446172,80.41686248779297,1356200,[],[],[]
2018-03-11,80.08507603442666,81.72606238377122,80.05819238202903,81.48396301269531,1495600,[],[],[]
2018-03-18,81.33149803211586,82.58688584382026,80.19268546647037,80.83831787109375,1369900,[],[],[]
2018-03-25,80.75760776127727,81.14317024445825,77.73571018643186,77.80744171142578,1145800,[],[],[]
2018-04-01,78.6055232049045,81.00868536399193,78.07646127695634,80.5513687133789,1013400,[],[],[]
2018-04-08,80.13889668657539,81.46600867113601,77.87918282654364,79.35874938964844,1436100,[],[],[]
2018-04-15,79.94161916310637,83.68986988577593,79.44842641212918,83.1697769165039,1662000,[],[],[]
2018-04-22,83.42084746622699,86.43379938413634,83.3580781021376,84.6852035522461,1433700,[],[],[]
2018-04-29,84.9273079725404,85.5729395426212,82.38962506086219,83.80642700195312,1714600,[],[],[]
2018-05-06,84.04853122083739,84.29064515533433,81.4570526845334,82.73038482666016,2866800,[],[],[]
2018-05-13,82.82900686392708,84.87024734452083,82.21580224346059,84.84325408935547,1626000,[],[],[]
2018-05-20,84.7532797019085,85.22117883973131,82.41376705222449,84.18638610839844,1656400,[],[],[]
2018-05-27,84.60030176886742,85.43712983664707,84.00642556836216,84.65428924560547,764500,[],[],[]
2018-06-03,84.09642183141989,84.9512374935078,82.95365986094721,83.47554779052734,798000,[],[],[]
2018-06-10,83.78149325494454,85.03219970915369,82.81865458302745,84.27638244628906,1548800,[],[],[]
2018-06-17,84.39335586347612,85.81506811699542,84.06942304202502,85.41014862060547,1991500,[],[],[]
2018-06-24,85.0952114604124,85.55411745351634,83.08863256686611,83.34957885742188,1944600,[],[],[]
2018-07-01,83.47551903217442,84.69027197336253,82.26077474633075,84.02440643310547,1498300,[],[],[]
2018-07-08,83.60150592893554,85.50912368039187,83.19658655661301,84.65428924560547,903400,[],[],[]
2018-07-15,84.98725664225815,87.1287704510462,84.98725664225815,85.36514282226562,1027600,[],[],[]
2018-07-22,85.27516866284755,86.86784609844878,83.82647776197012,86.18397521972656,843300,[],[],[]
2018-07-29,86.32793774710628,92.70759499359737,84.62730917197453,92.5906219482422,1399700,[],[],[]
2018-08-05,93.14852564507332,94.34325584599614,89.92720423359421,93.9821319580078,2048900,[],[],[]
2018-08-12,93.9009233553563,94.74955693851435,92.23070965712171,92.4293212890625,1445000,[],[],[]
2018-08-19,92.30293269012054,93.4133876924274,90.3348110691927,92.77239227294922,1112900,[],[],[]
2018-08-26,92.91682944683409,94.01827753289601,92.6279316855048,93.7113265991211,763200,[],[],[]
2018-09-02,93.70228964050455,95.48985999364746,93.68424662455774,94.53285217285156,974900,[],[],[]
2018-09-09,95.08360023365667,99.02883762515265,94.41552521223335,97.41280364990234,1144600,[],[],[]
2018-09-16,97.85517631233935,101.258769918523,97.08781812714584,101.08723449707033,1166800,[],[],[]
2018-09-23,101.38519808340817,101.3942211914026,99.01077730035033,99.59760284423828,1649100,[],[],[]
2018-09-30,99.48925849508322,100.63582643384703,97.09685064460396,97.26837921142578,1933000,[],[],[]
2018-10-07,97.54823989559539,98.5864618051218,95.96831524757671,96.75376892089844,1274200,[],[],[]
2018-10-14,96.70865302983188,97.36769804213316,90.5875902417208,91.77027130126952,1610000,[],[],[]
2018-10-21,91.7883371570027,95.77873149287977,91.22860152331518,94.18075561523438,1363500,[],[],[]
2018-10-28,94.44257979634666,94.55994215087873,89.65770991942833,90.60565948486328,1900700,[],[],[]
2018-11-04,91.4723464731416,95.41650764823426,86.11310003240195,94.03050994873048,2358900,[],[],[]
2018-11-11,94.20260133667674,95.84228668437382,91.72048832844142,94.47440338134766,1798500,[],[],[]
2018-11-18,94.35663763658002,97.06521143253575,91.68426498721857,96.27709197998048,1227900,[],[],[]
2018-11-25,96.20462825907613,96.61227914749867,93.2876768268767,94.12108612060548,736500,[],[],[]
2018-12-02,94.86391934024891,95.10850432374225,92.11001834997042,94.2569808959961,1341700,[],[],[]
2018-12-09,95.32591244093717,95.57955815287627,89.0934525475033,90.37979125976562,1094100,[],[],[]
2018-12-16,90.07180320760011,91.73862120395708,88.97568735641346,90.89614868164062,949500,[],[],[]
2018-12-23,90.44321048922993,91.1769792432537,84.70897265444519,84.74520874023438,1650100,[],[],[]
2018-12-30,84.12018093153186,85.07132706269765,81.23041590052443,83.97520446777344,1467600,[],[],[]
2019-01-06,84.08391859811105,85.21627044677734,79.95311767246666,82.4986343383789,1835200,[],[],[]
2019-01-13,82.07289071012978,85.89569334100754,82.05477611489137,85.81417846679688,1554700,[],[],[]
2019-01-20,85.4065123769664,88.74922069116832,84.9173355051728,88.49557495117188,1114400,[],[],[]
2019-01-27,88.25098798384835,89.0934614980152,86.16746435218202,88.22381591796875,821900,[],[],[]
2019-02-03,88.22378365027153,90.88574493296613,88.12413614940004,90.49485778808594,1288100,[],[],[]
2019-02-10,90.37667573222018,93.00379483681391,89.55853906393496,92.16748046875,1018400,[],[],[]
2019-02-17,92.61291475424842,94.09465870081122,92.03113019874979,92.66744232177734,1168600,[],[],[]
2019-02-24,92.57654249296866,94.54006419729885,91.48569233762962,92.76744079589844,1472900,[],[],[]
2019-03-03,92.9674538674258,93.26743852579845,91.53115563986981,91.6402359008789,1571300,[],[],[]
2019-03-10,92.04022273687202,92.96746946545166,90.18577779958298,91.33116912841795,960400,[],[],[]
2019-03-17,91.44935442561822,94.15826510478324,91.42208435561956,93.67647552490234,1087600,[],[],[]
2019-03-24,93.83100867454513,96.06728265949391,93.49466174067994,94.3855438232422,910100,[],[],[]
2019-03-31,94.13100067281685,96.97631449459531,93.64920412870482,96.7126922607422,1073500,[],[],[]
2019-04-07,97.18539327776442,99.0489354018245,96.54906161708213,98.84894561767578,955200,[],[],[]
2019-04-14,98.7671095083955,100.63064781933562,97.7399018913544,100.276123046875,914000,[],[],[]
2019-04-21,100.30337483417097,100.44882442478225,97.53993469833733,98.36715698242188,753200,[],[],[]
2019-04-28,98.40349005051453,101.49423069360043,98.40349005051453,101.28514862060548,810100,[],[],[]
2019-05-05,101.2487845179265,104.56859278977063,100.25490503399344,103.82990264892578,1406700,[],[],[]
2019-05-12,102.63517662842364,105.352898197286,102.3068761184485,103.60189819335938,1076300,[],[],[]
2019-05-19,102.06063760557598,104.42266862192048,101.49520222390603,103.76604461669922,779800,[],[],[]
2019-05-26,103.22798619751691,103.94845759565466,102.17920638776654,102.9908676147461,716000,[],[],[]
2019-06-02,103.09117116851297,103.72045466884748,101.68671726212027,103.30093383789062,823500,[],[],[]
2019-06-09,103.42862823492536,111.80978868867606,103.42862823492536,111.18963623046876,1920400,[],[],[]
2019-06-16,111.43589693123229,113.49696368919751,109.04644478711852,109.52067565917967,1246000,[],[],[]
2019-06-23,109.47510244487522,110.35062669163567,107.09481692392033,108.8731918334961,1623500,[],[],[]
2019-06-30,108.98262925330079,113.7705632099712,108.05240401488307,113.39664459228516,1803900,[],[],[]
2019-07-07,113.99857179842459,115.09295530452123,112.18373327254898,113.64291381835938,1168300,[],[],[]
2019-07-14,114.45455049180646,114.719030674538,112.18372436571364,112.54851531982422,1071900,[],[],[]
2019-07-21,112.31137630569734,113.95296866812004,111.53619259451943,112.53939056396484,1087600,[],[],[]
2019-07-28,112.63969780758,113.78881058082129,111.88274063124764,113.53345489501952,1024400,[],[],[]
2019-08-04,113.49697587223616,114.60048817578522,105.03541500564008,107.94390106201172,1970100,[],[],[]
2019-08-11,106.4988239203109,113.4133440945029,106.32504312223908,110.74263763427734,1648300,[],[],[]
2019-08-18,110.68779448003596,111.41032937505521,107.87988281291824,109.9835205078125,1163900,[],[],[]
2019-08-25,110.85240501826367,111.10850555131255,108.34635125753393,109.99266815185548,1169900,[],[],[]
2019-09-01,110.41340920724963,112.90118242485646,109.67256600819782,111.78533172607422,1009500,[],[],[]
2019-09-08,110.49572123990104,112.6908363042675,108.44696547022222,110.55974578857422,892200,[],[],[]
2019-09-15,111.1908315260379,111.1908315260379,106.20611845915715,108.29146575927734,1156000,[],[],[]
2019-09-22,107.66953213077784,108.85853092393585,105.97747922485041,107.97135162353516,1494300,[],[],[]
2019-09-29,107.56894124619141,109.46219839420125,107.56894124619141,108.53842163085938,820500,[],[],[]
2019-10-06,108.79452361564104,109.5079323312487,104.06590571625941,107.31281280517578,992100,[],[],[]
2019-10-13,106.72746422672252,107.92562124178707,104.73359201473652,106.39820098876952,888800,[],[],[]
2019-10-20,106.38905711032463,107.92562940238354,104.63298591005564,107.7244110107422,901000,[],[],[]
2019-10-27,108.2640342031316,108.94085393933543,106.55369326844566,107.8158721923828,575900,[],[],[]
2019-11-03,107.88903561139237,109.75071913442049,100.49397450249963,101.6407470703125,1318200,[],[],[]
2019-11-10,101.84259346586492,102.53065709643457,99.45730761309251,99.9985580444336,1801700,[],[],[]
2019-11-17,99.52150270751645,101.58570353633031,99.09950061572837,100.87928771972656,1283600,[],[],[]
2019-11-24,100.84258376813447,102.79669850768596,100.80588620861786,101.0260772705078,1968100,[],[],[]
2019-12-01,101.15452288402471,104.20033152284445,101.07195161437109,102.86092376708984,721100,[],[],[]
2019-12-08,103.22788032221771,104.10859547892856,101.96186762298584,102.82422637939452,1370100,[],[],[]
2019-12-15,103.0352076640762,105.86087565829875,102.14532905672108,104.55814361572266,1403000,[],[],[]
2019-12-22,105.00765700736022,105.63152806849948,103.08108846517139,105.46639251708984,1292700,[],[],[]
2019-12-29,105.43886309087225,106.0902255309318,104.40215798077185,105.52142333984376,406800,[],[],[]
2020-01-05,105.44804999863942,106.86084925123905,103.49394044180794,104.62236785888672,1087900,[],[],[]
2020-01-12,104.2737382843566,106.57647591063099,103.42971932640295,106.22785949707033,1374000,[],[],[]
2020-01-19,105.95261500333505,108.81494739252294,105.63151485543072,107.63147735595705,1028700,[],[],[]
2020-01-26,107.02597813840892,109.19108700193954,105.2920605118789,107.44800567626952,845100,[],[],[]
2020-02-02,105.99848129556561,107.74428096063009,105.21355162187211,106.29945373535156,1082800,[],[],[]
2020-02-09,106.3915081154935,109.46514879732027,106.29948330436278,107.39459228515624,1165400,[],[],[]
2020-02-16,107.1368955061602,108.36086629628102,104.62458806908558,107.36698150634766,1205600,[],[],[]
2020-02-23,107.18292853642426,107.33016682234211,100.45581035500906,103.05094909667967,1659500,[],[],[]
2020-03-01,101.68895466116469,102.34233986216387,91.40042852328939,93.0108871459961,2955100,['RSI_OVERSOLD'],['RSI_OVERSOLD'],[]
2020-03-08,93.51703455173363,99.0478003346691,92.77161749697241,98.74412536621094,1877400,[],[],[]
2020-03-15,94.54773476230754,96.6275292628087,80.52293194717582,88.7040786743164,3264300,[],[],[]
2020-03-22,80.43090540154078,93.1489152609638,80.43090540154078,85.13345336914062,3107100,['RSI_OVERSOLD'],['RSI_OVERSOLD'],[]
2020-03-29,84.7193058518151,89.57830348479199,73.47370463107445,86.50463104248047,2739600,[],[],[]
2020-04-05,87.39729501639663,94.55691475381866,85.91569259691664,86.67951202392578,2088900,[],[],[]
2020-04-12,89.32982481551956,99.41590808150121,89.32982481551956,98.7165069580078,1609000,[],[],[]
2020-04-19,98.45883525696675,98.86375280772926,91.7317240798263,94.73177337646484,1465300,[],[],[]
2020-04-26,93.73789360747689,99.33308859429832,93.06609921718322,95.81768035888672,2492900,[],[],[]
2020-05-03,100.61225196469749,105.85574825253177,96.66974048063084,97.98993682861328,2205700,[],[],[]
2020-05-10,97.42681482825722,99.69787858651812,96.71592278539896,99.27320098876952,1433000,[],[],[]
2020-05-17,98.47002695732691,99.25475759474133,91.4997630306316,93.7062530517578,1567000,[],[],[]
2020-05-24,96.07891216145171,97.6299198395069,95.04490960716142,97.0298080444336,1050500,[],[],[]
2020-05-31,99.09781289491615,104.62787205569252,98.58081517573937,102.8368148803711,1071500,[],[],[]
2020-06-07,102.73529827575629,105.50493094551672,102.10751219608179,104.6925048828125,1116500,[],[],[]
2020-06-14,104.1570434710005,105.24643669396136,95.16493183471775,97.26985931396484,1527600,[],[],[]
2020-06-21,95.49727647062693,100.71345115765779,95.15568469035557,99.3378448486328,1218800,[],[],[]
2020-06-28,98.72852580333797,100.34416555258763,95.81116694540272,99.44864654541016,2091900,[],[],[]
2020-07-05,99.92869676385729,106.17888193303034,99.60557322285096,106.14195251464844,1130400,[],[],[]
2020-07-12,107.08361037328183,107.7021692247229,102.85529698550579,106.12349700927734,1435000,[],[],[]
2020-07-19,106.13271635390787,110.5179675154051,104.57248191428,110.23177337646484,1311400,[],[],[]
2020-07-26,110.23178026384858,110.66570320660966,108.394601521709,109.7239990234375,1523500,[],[],[]
2020-08-02,109.70554900769385,111.20115155740613,102.98923171650324,106.67469024658205,1769500,[],[],[]
2020-08-09,108.20261246472167,111.7399007989074,106.35062078517217,110.42498779296876,1139500,[],[],[]
2020-08-16,110.73056998371611,110.78613373469922,107.90626504035329,109.7212371826172,939000,[],[],[]
2020-08-23,110.32314391187087,111.04541953735598,107.78591040088914,109.08230590820312,836200,[],[],[]
2020-08-30,109.45268963742734,111.69361934143863,108.86003809014616,109.38786315917967,963400,[],[],[]
2020-09-06,109.80457303750894,113.37892164369312,107.8692531630251,109.9342269897461,921600,[],[],[]
2020-09-13,109.38787257690906,110.1101623076262,107.45254490052777,109.6008529663086,696700,[],[],[]
2020-09-20,110.5361024504607,111.17503464008904,105.77649600771126,106.52655029296876,1396800,[],[],[]
2020-09-27,105.19310761280833,106.18395296597544,102.93367673653094,103.80412292480467,1244600,[],[],[]
2020-10-04,104.79493034539577,106.46173174616742,103.48001053970138,104.49860382080078,993300,[],[],[]
2020-10-11,104.97087019891471,109.62862506281665,104.83196943481894,108.1655502319336,835200,[],[],[]
2020-10-18,108.38778600271164,110.11016160044589,105.76723263849405,107.7396011352539,610600,[],[],[]
2020-10-25,108.00814973501365,110.16571076495364,106.10060064442179,109.59159088134766,709700,[],[],[]
2020-11-01,108.66559596064988,108.8510496407127,102.48846930775419,105.97164154052734,1066600,[],[],[]
2020-11-08,106.9747912211178,115.74305685858158,106.51036996158025,114.80492401123048,1014400,[],[],[]
2020-11-15,118.53887844652894,119.69064112388297,113.42095445804797,116.17032623291016,1109900,[],[],[]
2020-11-22,117.29422408208373,119.22621345502803,116.63474678942268,118.71534729003906,1022900,[],[],[]
2020-11-29,118.94756251812204,119.93213325272788,116.82052573206136,118.18592834472656,623400,[],[],[]
2020-12-06,117.76793985448258,119.43056980295637,116.24462347618517,118.59461212158205,787500,[],[],[]
2020-12-13,118.88254692800696,121.77125182862738,118.5574534775897,121.16749572753906,834800,[],[],[]
2020-12-20,121.72480273901633,125.08721788970225,119.07759615620978,124.55778503417967,1583400,[],[],[]
2020-12-27,123.33169166869165,126.66625285578785,122.14277454084213,126.04393005371095,744800,[],[],[]
2021-01-03,126.49907891521089,127.58580808287263,125.2451292578118,127.14923095703122,463600,[],[],['hanging_man']
2021-01-10,126.24828082459992,130.6138124087712,124.03762294630377,129.1741180419922,1198500,[],[],[]
2021-01-17,129.57351633033528,131.27330857805347,126.45260120412532,128.95120239257812,890000,[],[],[]
2021-01-24,129.64783362529317,131.08753295404298,127.35358372339947,128.3567352294922,912500,[],[],[]
2021-01-31,128.32884831660752,130.37420901012499,122.75662755946192,123.82755279541016,1043500,[],[],[]
2021-02-07,124.90782505791393,131.0540560794779,122.74733107120471,130.98887634277344,941000,[],[],[]
2021-02-14,131.5382893465427,134.80691940568985,130.86779215079963,134.6858673095703,806400,[],[],[]
2021-02-21,134.66728227792345,134.7697197523888,122.56106999379683,123.14775848388672,1077600,[],[],[]
2021-02-28,122.22582544312537,122.5238350121025,118.06317809286027,121.12696838378906,1815900,[],[],[]
2021-03-07,121.78817691248992,124.91713238711662,120.56820339221724,124.87056732177734,1569400,[],[],[]
2021-03-14,125.5596654234481,131.52896408064254,124.87986109158136,131.09127807617188,1020900,[],[],[]
2021-03-21,132.03181637786435,133.19587175868884,129.48023419060434,129.73167419433594,1606900,[],[],[]
2021-03-28,129.41506312998342,134.86282348632812,128.7538732120823,134.86282348632812,1431000,[],[],[]
2021-04-04,134.32274088336843,135.8685962887827,131.51967818029325,133.97813415527344,1156900,[],[],[]
2021-04-11,134.98393983758083,135.95239046549437,132.4136481271015,135.2166748046875,900300,[],[],[]
2021-04-18,134.73242490173772,139.30488649156248,134.56481636710004,137.89871215820312,954100,[],[],[]
2021-04-25,138.0383587220114,141.88443770446642,136.58562259812945,141.03697204589844,1051900,[],[],[]
2021-05-02,141.31636119936186,142.90540645517322,138.0787210645361,140.7954864501953,1192600,[],[],[]
2021-05-09,142.05585607704066,147.4426546025771,141.66374778311078,147.09722900390625,1033800,[],[],[]
2021-05-16,147.26529907452434,148.4136170811715,141.29028706452993,143.3441925048828,1173000,[],[],[]
2021-05-23,142.9427490234375,143.85766824992325,138.7322196726875,139.69386291503906,728800,[],[],[]
2021-05-30,140.47802954065992,140.72075909283248,136.69699399019078,137.52789306640625,775300,[],[],[]
2021-06-06,138.153410996279,138.92829670653734,135.12854333633686,135.89410400390625,832200,[],[],[]
2021-06-13,135.86608518343175,136.53828744343872,131.74888953936463,136.14617919921875,910800,[],[],[]
2021-06-20,136.3049126833402,136.3049126833402,130.61932176713648,130.7967071533203,1044500,[],[],[]
2021-06-27,131.6182429619991,133.18669960840015,130.50725163338112,131.56224060058594,1442100,[],[],[]
2021-07-04,131.71160606841738,132.54248426175508,130.45124691199248,131.08607482910156,904400,[],[],[]
2021-07-11,131.07673444924663,132.06642394226216,129.4336123507175,131.80496215820312,877300,[],[],[]
2021-07-18,131.4688444673622,131.83296639378779,128.20129883091144,129.80706787109375,911000,[],[],[]
2021-07-25,128.87347130255947,130.37653346888933,125.37245640231163,127.19297790527344,1123800,[],[],[]
2021-08-01,127.67848134081676,130.7126188729988,119.66823471450688,120.35910034179688,1665000,[],[],[]
2021-08-08,119.91096208774616,121.90885511797245,118.27772629304381,120.25337982177734,1509000,[],[],[]
2021-08-15,120.50618668231182,125.36578671606084,120.43127824550835,124.57926940917967,1225600,[],[],[]
2021-08-22,124.14852958459328,125.3845026128207,123.03430432991846,125.0193328857422,642800,[],[],[]
2021-08-29,125.627951440031,126.35827016132572,123.802102701377,125.96501159667967,627100,[],[],[]
2021-09-05,126.55490167416839,127.55677158363596,125.59983798890737,126.5455322265625,690400,[],[],[]
2021-09-12,126.14292801569437,126.14292801569437,117.80954642125785,117.8282699584961,1025500,[],[],[]
2021-09-19,117.47247047520102,118.3713342869177,113.03426261503563,113.51179504394533,1421900,[],[],[]
2021-09-26,112.13536921100864,114.53239996274576,111.83572870354324,112.69715881347656,1113200,[],['inverted_hammer'],[]
2021-10-03,112.52861585975424,114.53237797809756,111.05857959270402,113.83949279785156,1249700,['hammer'],['hammer'],[]
2021-10-10,113.76457540944283,118.01553502628587,112.78143904605855,116.58294677734376,1202600,[],[],[]
2021-10-17,116.54552053436903,121.02116262939089,115.96497102081199,120.0567398071289,957600,[],[],[]
2021-10-24,119.51368004075431,121.52679050948252,118.83016017057719,119.6353988647461,815700,[],[],[]
2021-10-31,119.81331174178099,120.67474455132619,112.60129021827623,113.42771911621094,1522200,[],[],[]
2021-11-07,112.67641241383437,123.64541903870294,112.67641241383437,123.49515533447266,1809300,[],[],[]
2021-11-14,123.91773815694795,124.21826551373447,120.89374350643503,123.4857406616211,882000,[],[],[]
2021-11-21,124.35913232572584,127.542788397417,121.59813508587744,122.22734832763672,1332400,[],[],[]
2021-11-28,122.55602318174887,123.48576368880077,118.6492638099296,118.90283203125,817700,[],[],[]
2021-12-05,120.25515904430213,120.48994068463465,109.56790524922171,111.56824493408205,2554500,[],[],[]
2021-12-12,112.9111953352677,114.32926910372495,111.59641664987669,112.4510269165039,1565900,[],[],[]
2021-12-19,112.19745043417424,113.27744740312603,108.6287791717533,108.83538818359376,1863000,[],[],[]
2021-12-26,107.8305312339362,109.46459129127874,105.52967360327393,109.24859619140624,1197300,[],[],[]
2022-01-02,109.53971953003142,115.9821448109088,109.5021536084716,115.02423858642578,2207500,[],[],[]
2022-01-09,114.98665860675123,116.58316706517452,112.02840850184523,116.15118408203124,1506800,[],[],[]
2022-01-16,115.4656153324908,116.34839665014066,112.57312154423876,113.80337524414062,1112700,[],[],[]
2022-01-23,113.26805193638194,114.86459268671798,108.77904735822769,109.29556274414062,1134600,[],[],[]
2022-01-30,108.55363086202132,111.09869105992057,105.60480393758874,108.04653930664062,2928800,[],[],[]
2022-02-06,108.00895274462913,111.69033647350824,107.08753144911721,108.59500885009766,1474300,[],[],[]
2022-02-13,108.93417459064621,110.85620811370799,106.34319026569905,107.13461303710938,1261100,[],[],[]
2022-02-20,107.13460502100783,114.49300119013861,105.93804719998586,111.5911102294922,1625700,[],[],[]
2022-02-27,111.64763336627021,114.56839020250253,108.08621689152628,113.97482299804688,1367700,[],[],[]
2022-03-06,112.56154037548843,115.83088876478048,110.62067660869945,113.23991394042967,1479900,[],[],[]
2022-03-13,112.41080971173201,113.3906718138828,103.67684108441537,105.8061752319336,1405200,[],[],[]
2022-03-20,106.29609569548032,112.2223567322085,106.24898410897889,110.93157958984376,1090200,[],[],[]
2022-03-27,110.92217853163905,113.49427442791385,107.40784307036606,110.46048736572266,1218100,[],[],[]
2022-04-03,110.63951413154972,112.90072702930921,108.3594543434587,112.13755798339844,1120600,[],[],[]
2022-04-10,111.85492265517458,115.16194097869636,108.53846543150888,114.3893585205078,1343100,[],[],[]
2022-04-17,114.12555567119244,115.2279049232501,109.66906291650457,110.61124420166016,678900,[],[],[]
2022-04-24,110.02710927949659,113.39065662744856,106.9461838975135,109.8763427734375,858000,[],[],[]
2022-05-01,109.76329602136337,110.07866249009399,103.55618974533587,108.54730224609376,1835800,[],[],[]
2022-05-08,109.10500441826271,110.57020189264507,103.75470639249674,105.14427947998048,1540100,[],[],[]
2022-05-15,103.98156497052085,105.02137917783263,97.60086328626306,101.6277847290039,1602500,[],['hammer'],[]
2022-05-22,101.41982441958014,104.35021940602076,91.87243294782007,94.26400756835938,1992900,['RSI_OVERSOLD'],['RSI_OVERSOLD'],[]
2022-05-29,95.4267072540066,102.9700938324652,94.21674120655764,102.93228149414062,1972200,[],[],[]
2022-06-05,102.166613179595,104.00991631136196,99.85063665518794,102.84722900390624,905200,[],[],[]
2022-06-12,103.59398471154232,104.74723584785873,97.48745462795229,99.44419860839844,958600,[],[],[]
2022-06-19,97.24166587682791,97.58196973735662,88.88534370044593,92.16548919677734,1842200,[],[],[]
2022-06-26,92.6192217345718,97.03370565980093,90.97439917196951,97.0053482055664,943700,[],[],[]
2022-07-03,97.00534639898487,98.9431774420561,95.79537423645593,98.77302551269533,1154500,[],[],[]
2022-07-10,97.68593627404438,97.8844684480754,94.52869208409709,94.53814697265624,945900,[],[],[]
2022-07-17,94.3490866712174,96.27746894313057,92.95951494906758,94.53814697265624,1068800,[],[],[]
2022-07-24,95.06751073778533,98.29094585493458,92.35453452463932,97.93173217773438,1627700,[],[],[]
2022-07-31,98.04516028391114,103.87932034198367,96.65926730013753,102.23797607421876,1433000,[],[],[]
2022-08-07,100.85277990339607,103.24365528908524,99.7047756432092,100.236083984375,1214600,[],[],[]
2022-08-14,100.69148983308247,105.58707711447124,100.5776437251489,105.38783264160156,993800,[],[],[]
2022-08-21,105.00833493409121,106.66865825924452,103.93626504416007,104.51500701904295,958000,[],[],[]
2022-08-28,103.57572351195724,103.93625330347865,98.8319398877158,99.05964660644533,824200,[],[],[]
2022-09-04,98.64218513909147,99.3917049735591,95.55872952018872,96.23234558105467,894200,[],[],[]
2022-09-11,96.0710643459794,101.34614726714923,94.69536337677845,100.95716094970705,658500,[],[],[]
2022-09-18,101.68769713411218,102.72183799219316,96.20388485709887,97.38034057617188,1679300,[],[],[]
2022-09-25,96.63081788710971,99.19246397984153,91.96294496195965,93.05401611328124,999500,[],[],[]
2022-10-02,92.50372717173398,93.73712492820226,90.00849636278713,90.16029357910156,1517500,[],[],[]
2022-10-09,91.51703113882665,94.71434051216208,88.80357629821907,89.16410827636719,1059500,[],[],[]
2022-10-16,89.55308295903362,91.00468481647361,85.60629160862887,90.20773315429688,1250800,[],[],[]
2022-10-23,91.09956843383472,94.8566538653019,89.68593335078731,92.52271270751952,1347700,[],[],[]
2022-10-30,92.88322310821539,99.16946609821416,91.40697232069076,96.32162475585938,1384900,[],[],[]
2022-11-06,95.20726084639469,95.81683056818211,88.14958268578948,94.07383728027344,1430000,[],[],[]
2022-11-13,94.47387371661448,100.08381973745131,93.32140574716146,99.29328155517578,1057700,[],[],[]
2022-11-20,98.68371801107041,101.92206393441683,98.68371801107041,100.99817657470705,1026100,[],[],[]
2022-11-27,101.05532288301761,101.70300406576027,99.9409539439441,100.87437438964844,794100,[],[],[]
2022-12-04,100.04572066814573,103.38882437883025,96.67403792644355,102.91259765625,1011800,[],[],[]
2022-12-11,101.77919660758239,103.7983895457478,100.36003233426607,102.92212677001952,1061900,[],[],[]
2022-12-18,103.30310708689835,105.82710364711284,101.33152494532682,102.33160400390624,1610600,[],[],[]
2022-12-25,102.21730864401849,105.53186251679956,100.7505293918553,104.7794189453125,1226900,[],[],[]
2023-01-01,104.67464490971757,106.58907506047443,103.82695844710454,104.75083923339844,565400,[],[],[]
2023-01-08,105.32233250252861,108.96068643196966,103.93173983629711,108.63684844970705,947900,[],[],[]
2023-01-15,109.17975948396624,110.17983872496029,107.05579514159474,108.55113983154295,822900,[],[],[]
2023-01-22,108.75114549050157,109.15118300044956,105.08420639203251,107.90345764160156,681600,[],[],[]
2023-01-29,107.81773487019247,108.32254133655589,105.23660700955195,107.3700942993164,862600,[],[],[]
2023-02-05,106.39857721635475,113.0849594481918,106.1604638467183,110.29462432861328,1577700,[],[],[]
2023-02-12,109.47281770745725,110.3710781657817,103.0989987484027,104.36038208007812,906400,[],[],[]
2023-02-19,104.54196298790713,115.89439580732343,103.37612367565919,111.50822448730467,1425500,[],[],[]
2023-02-26,111.32666788917305,111.32666788917305,107.97255173050836,109.67350769042967,1133100,[],[],[]
2023-03-05,110.69596405861891,114.9101333618164,110.38062369741955,114.9101333618164,1101900,[],[],[]
2023-03-12,114.7954762255109,114.85281680895056,107.29406516531567,107.56163024902344,1185800,[],[],[]
2023-03-19,106.50092801365264,110.14173372296572,105.06751855565048,105.84156799316406,1366100,[],[],[]
2023-03-26,106.8353955817937,109.14792235083867,105.1344167285393,107.95342254638672,770000,[],[],[]
2023-04-02,108.42165867301226,113.01806946148729,108.11587800868477,112.9416275024414,852900,[],[],[]
2023-04-09,112.69315884805901,114.0405524441083,111.59421681828297,113.77298736572266,743200,[],[],[]
2023-04-16,113.12318198719555,114.72857229893738,112.65495727737223,113.9067611694336,775000,[],[],[]
2023-04-23,114.19345332855825,115.69372693312367,112.80784595529133,115.23503875732422,1295300,[],[],[]
2023-04-30,115.49304662087705,116.02817672029481,109.53970812269817,113.2474136352539,1592900,[],[],[]
2023-05-07,114.10746366249627,117.06024512158423,110.59085132700137,116.6637191772461,1300200,[],[],[]
2023-05-14,116.81710292974779,117.27723513087143,113.59614583559885,115.79136657714844,985500,[],[],[]
2023-05-21,115.59965353873214,116.05979304817764,112.5991703111704,114.16172790527344,748600,[],[],[]
2023-05-28,113.75910927976403,114.57393249369476,108.27580441962905,109.43573760986328,1089800,[],[],[]
2023-06-04,109.48366159918592,110.00131821912187,107.06795712680015,109.43573760986328,1020600,[],[],[]
2023-06-11,109.09064576236622,111.19000959428463,108.20871233570043,110.058837890625,1333900,[],[],[]
2023-06-18,109.93422789750664,112.35953190905539,109.56995597087156,112.30201721191406,2256700,[],[],[]
2023-06-25,112.04316534807104,112.11026825332267,107.43223073089834,108.16078186035156,1247000,[],[],[]
2023-07-02,108.3812734708658,111.46800901708939,107.82526441019587,111.06539154052734,1071100,[],[],[]
2023-07-09,110.63401978446419,112.17738682073548,107.01044675041872,109.0810546875,1081000,[],[],[]
2023-07-16,108.62091826500269,113.92207485386147,108.33333747818335,113.45235443115234,1135900,[],[],[]
2023-07-23,113.50027280330323,115.38876253213712,112.31158957695553,114.88068389892578,1030600,[],[],[]
2023-07-30,115.05323058293628,122.15020668044086,113.79744441906725,119.0625457763672,1641800,[],[],[]
2023-08-06,118.81245087262072,119.20682863562156,115.40736777057225,116.0422134399414,1753400,[],[],[]
2023-08-13,116.12880236645722,118.86055171557352,115.14766293103469,117.9371337890625,1140400,[],[],[]
2023-08-20,117.37923848241955,118.71625224874127,116.75399923570933,118.5912094116211,1315500,[],[],[]
2023-08-27,118.45655872220827,122.81390878136904,117.64856721961152,122.6792449951172,1864800,[],[],[]
2023-09-03,122.76582157262821,128.69103845879502,122.76582157262821,127.49830627441406,1661000,[],[],[]
2023-09-10,126.66146169919045,126.95003116428316,120.35146405181672,120.53421783447266,1183800,[],[],[]
2023-09-17,122.1501993465401,123.05437674267792,120.34185642798873,121.13060760498048,1677900,[],[],[]
2023-09-24,121.54423019858976,121.54423019858976,117.4561947232151,118.00447082519533,1276800,[],[],[]
2023-10-01,117.34077819162174,121.99632512715142,116.84059939153208,120.27454376220705,1718400,[],[],[]
2023-10-08,119.78395548707735,121.86165089685025,117.66781004256848,121.59232330322266,1647000,[],[],[]
2023-10-15,121.02480932619932,123.70847018445959,120.29377235151563,121.16908264160156,1324800,[],[],[]
2023-10-22,122.50611121132462,123.44875352595632,117.28305556639174,117.56200408935548,1767300,[],[],[]
2023-10-29,117.08107007558768,121.01346037392442,116.15901667481168,116.94074249267578,2062400,[],[],[]
2023-11-05,117.66457150071054,121.57321603943892,116.63191847013124,120.974853515625,1728800,[],[],[]
2023-11-12,120.89764432950585,121.3994961613825,119.5658112399359,121.33193969726562,868500,[],[],[]
2023-11-19,121.0134629802709,124.57466044313414,120.02906768075306,123.4647979736328,1218800,[],[],[]
2023-11-26,123.00154326553827,124.69047458350227,122.01714809702534,124.04386901855467,615200,[],[],[]
2023-12-03,123.35863193285542,124.05350585054758,120.45370267838986,123.62887573242188,1436600,[],[],[]
2023-12-10,123.0015610955125,124.38165691773952,121.23542230546798,122.87608337402344,1069300,[],[],[]
2023-12-17,122.81819302140137,125.47219566747552,121.57322508471094,121.58287811279295,2099200,[],[],[]
2023-12-24,122.28739523266057,123.65782739941073,120.49230482765589,121.8627471923828,1980100,[],[],[]
2023-12-31,121.73727265338081,122.44179634238444,119.2473336428409,119.30524444580078,1214900,[],[],[]
2024-01-07,118.33048400507987,122.81818962646165,118.0216534155559,119.864990234375,1621100,[],[],[]
2024-01-14,119.73953213187558,123.5034003735672,118.09887089459964,122.01715087890624,1437100,[],[],[]
2024-01-21,121.48634060646513,126.87160167039863,121.12925962608607,126.23463439941406,1456600,[],[],[]
2024-01-28,126.33113669376289,127.96216113643405,125.78104614923554,127.1032257080078,1330600,[],[],['shooting_star']
2024-02-04,126.47590503677381,128.53437487913746,124.58451763837662,125.94953918457033,1597300,[],[],[]
2024-02-11,125.01049634153881,134.76892573911803,123.96494875503912,134.5269012451172,2353800,[],[],[]
2024-02-18,134.72051017566284,135.98871608812559,130.27694117211416,133.1134490966797,2027500,[],[],[]
2024-02-25,132.76494422449613,137.87650772141765,132.58100326162543,136.85032653808594,1135300,[],[],[]
2024-03-03,136.9858566979064,137.64413944601768,134.88510115200842,135.81442260742188,1035400,[],[],[]
2024-03-10,136.20170952806765,140.50974321124528,136.0758520614475,138.52511596679688,1069800,[],[],[]
2024-03-17,138.23467236717613,138.80586127112414,135.2820025310812,136.50180053710938,1640400,[],[],[]
2024-03-24,136.43404366008966,137.9055476013454,134.44943456936542,137.07298278808594,1304500,[],[],[]
2024-03-31,136.69543011458305,140.71303575776633,136.66638835730595,139.2996063232422,1096500,[],[],[]
2024-04-07,139.20275685009975,139.20275685009975,135.40784705367142,137.20851135253906,1357600,[],[],[]
2024-04-14,137.15040168122644,137.83775755940698,131.62259662579817,132.82302856445312,1320300,[],[],[]
2024-04-21,134.18804610778258,135.4562433737092,132.9779144955909,134.89474487304688,1689900,[],[],[]
2024-04-28,135.09808150736472,144.19403432783037,134.80764914726078,139.16458129882812,2459100,[],[],[]
2024-05-05,140.68896186966708,143.71829961506626,139.8733594266455,142.54347229003906,2281200,[],[],[]
2024-05-12,143.46584874866832,147.32047837661355,142.88329461371845,144.1746368408203,1362000,[],[],['shooting_star']
2024-05-19,144.21346995257653,145.13585840929454,142.17450084023903,143.37844848632812,921200,[],[],[]
2024-05-26,143.30079134207162,144.62126725880347,142.7667722722628,143.7862548828125,1061100,[],[],[]
2024-06-02,143.32990795502417,143.5338036875814,140.3102801303625,143.3978729248047,1235100,[],[],[]
2024-06-09,144.18433298516325,144.18433298516325,141.17443223714181,141.320068359375,1160000,[],[],[]
2024-06-16,140.62097903208888,142.27161871575709,139.5043934580447,140.54330444335938,868700,[],[],[]
2024-06-23,140.65981624752195,143.39786385052693,140.3685466316063,142.58230590820312,1167700,[],[],[]
2024-06-30,142.94153910100914,143.92218146002028,136.01874245488284,136.7178192138672,1382200,[],[],[]
2024-07-07,137.2712545772139,137.36833951304502,133.75645612270853,136.80520629882812,916100,[],[],[]
2024-07-14,137.53339169445843,141.26180800557879,135.6886339831031,140.38795471191406,1138100,[],[],[]
2024-07-21,140.55302268784044,142.97068107315562,138.98010738595784,141.69874572753906,1426400,[],[],[]
2024-07-28,141.74729152284237,147.3532937123029,137.5452948637296,142.84378051757812,1841700,[],[],[]
2024-08-04,142.76586110666832,145.64882955447564,140.0094955037422,141.89901733398438,1631300,[],[],[]
2024-08-11,139.69780574748174,143.42813984840885,135.85059153457982,140.2042694091797,1809900,[],[],[]
2024-08-18,140.22377593602033,143.5060614579835,139.05500395736158,142.90220642089844,1076900,[],[],[]
2024-08-25,142.51262572122243,146.61307569653127,142.12302517326572,146.52542114257812,1267500,[],[],[]
2024-09-01,146.75915922191393,149.4473216241324,145.94101293699603,149.20382690429688,1058400,[],[],[]
2024-09-08,148.15196236389943,149.13565190287514,145.70725993860023,148.4149169921875,1057900,[],[],[]
2024-09-15,148.59998302653705,149.0772232245831,144.76250795288001,148.3175048828125,916600,[],[],['hanging_man']
2024-09-22,149.0577202574082,154.67762550954814,147.9181849513857,151.85305786132812,1732700,[],[],[]
2024-09-29,152.1063064527266,157.34631621260434,150.71352354488388,155.72950744628906,1572000,[],[],[]
2024-10-06,155.14512315625234,157.26839101232096,152.56409002818182,156.40155029296875,1386400,[],[],[]
2024-10-13,155.24251230852914,157.70666566406467,153.0121203289736,157.34629821777344,944700,[],[],[]
2024-10-20,160.6968029731812,165.2452816100452,159.20661626974442,164.24209594726562,1606700,[],[],[]
2024-10-27,164.0862524476999,165.87558734575057,160.52148906409494,164.95758056640625,1830700,[],[],[]
2024-11-03,165.92439581087592,167.3990718969887,163.69776911458624,165.44589233398438,1624600,[],[],[]
2024-11-10,165.66072177477935,173.6786238548333,163.81495853194275,171.6472930908203,1383600,[],[],[]
2024-11-17,172.19418764538844,173.86416596467407,162.28168847937133,162.59420776367188,1356000,[],[],[]
2024-11-24,162.49655239968402,168.04362806955587,160.4847578059515,167.49671936035156,1340500,[],[],[]
2024-12-01,168.02409483029683,169.94799873062775,167.15494495593342,168.9127960205078,694900,[],[],['shooting_star']
2024-12-08,168.9323215272417,169.39130847544556,166.5396745813458,167.1451416015625,958600,[],[],[]
2024-12-15,167.54556559711838,170.02613822467129,164.25441250187913,166.21739196777344,1338800,[],[],[]
2024-12-22,166.15881199108833,166.93031984565312,153.7852597851201,154.4786376953125,2351500,[],[],[]
2024-12-29,153.49229809203675,155.89472747069453,153.28722033295332,154.4493408203125,604900,[],[],[]
2025-01-05,153.32626257404377,154.54700411025723,149.29290988290282,151.8613739013672,1028900,[],[],[]
2025-01-12,150.39648145810642,152.40826189282907,147.89638648827628,149.85934448242188,1309600,[],[],[]
2025-01-19,149.35151938743235,154.25403847264764,149.35151938743235,152.43756103515625,1330500,[],[],[]
2025-01-26,153.0528143054371,156.98849010418607,153.0528143054371,154.59584045410156,1030300,[],[],[]
2025-02-02,154.54699783386062,156.59788985115384,152.9161063496536,153.4727325439453,1895400,[],[],[]
2025-02-09,150.9628742010352,156.54649741836073,139.11328743464438,140.22979736328125,2597700,[],[],[]
2025-02-16,141.28754664505917,142.31591505799216,137.0467400415367,141.80662536621094,2601400,[],[],[]
2025-02-23,141.80661410840983,144.45100897747918,140.93495304164546,143.3246612548828,1555600,[],[],[]
2025-03-02,143.16798872554835,146.10617230747383,141.38549716336897,143.7262420654297,2037100,[],[],[]
2025-03-09,143.94169395000412,150.20003950079644,142.14940329945776,149.63198852539062,2281200,[],[],[]
2025-03-16,148.93660655516885,150.82683175384557,140.79782663230102,143.63809204101562,1456800,[],[],[]
2025-03-23,143.49118010431383,144.95048427871978,139.4266801328764,141.83599853515625,1659400,[],[],[]
2025-03-30,142.74685366750688,146.90927723620769,141.9241652673277,143.90252685546875,1971900,[],[],[]
2025-04-06,143.5597480313838,148.01600308998087,137.1544807452422,137.29159545898438,1744600,[],[],[]
2025-04-13,133.5306985896499,141.7282680233526,128.15383009223805,141.140625,2107500,[],[],[]
2025-04-20,142.79581425798335,143.52057023933776,137.8107011490633,140.8664093017578,1198300,[],[],[]
2025-04-27,140.347331860725,149.84745131334506,138.19266546008294,145.98863220214844,1691400,[],[],[]
2025-05-04,146.71339348881767,150.29848992197137,144.17675754933848,149.31614685058594,2028200,[],[],[]
2025-05-11,148.7562234700928,151.84077180787722,146.78170385931236,150.6128387451172,1432100,[],[],[]
2025-05-18,153.0392239180569,154.3752135929202,148.30432613531156,154.23768615722656,1598700,[],[],[]
2025-05-25,153.5991717253283,157.43029958325823,151.53624028030902,153.18658447265625,1432700,[],[],[]
2025-06-01,154.25734853178614,156.03538034918074,153.77597547059216,155.60313415527344,1284400,[],[],[]
2025-06-08,154.75831599595244,156.26131463804512,146.41825295522108,150.60302734375,2326400,[],[],[]
2025-06-15,150.0136191980335,151.88987086726192,148.06858195648448,148.49099731445312,1791100,[],[],[]
2025-06-22,148.5695758002576,150.20025395390124,146.35931206442524,147.64617919921875,1679600,[],[],[]
2025-06-29,146.85047583401547,153.35359852041546,146.85047583401547,153.0687255859375,2169100,[],[],[]
2025-07-06,153.27499173184543,158.51089020387988,151.8800663373244,158.196533203125,1182400,[],[],[]
2025-07-13,158.1081326731942,159.7093565965001,153.86440405350666,155.11196899414062,1563000,[],[],[]
2025-07-20,154.3654022940558,156.13362296539574,150.83880194564915,153.6188201904297,1433500,[],[],[]
2025-07-27,153.65812006565358,161.82979531304568,152.48910879729814,158.58885192871094,1834500,[],[],[]
2025-08-03,158.79572064833397,159.5640858506177,138.9856590147076,139.24179077148438,2969400,[],[],[]
2025-08-10,140.98538123418317,140.98538123418317,135.03547356824112,138.65074157714844,2887800,[],[],[]
2025-08-17,139.222090228796,139.5077583171329,134.405016641309,136.65103149414062,3011800,[],[],[]
2025-08-24,136.81847442171076,141.19225798353852,135.3014499206359,139.32058715820312,2008700,[],[],[]
2025-08-31,138.8674588166062,139.4979127296023,135.35069910089788,137.1928253173828,2109300,[],[],[]
2025-09-07,135.37041901487592,138.7197049562119,132.43485133034417,136.55250549316406,1535500,[],[],[]
2025-09-14,136.52295752982062,137.91193130257207,132.83875165602893,133.2130584716797,2677100,[],[],[]
2025-09-21,133.9420357302436,135.0256121123868,131.35126046807318,132.4348602294922,2282200,[],[],[]
2025-09-28,132.11962230163485,132.92739938115005,128.32705085173455,130.31690979003906,1738200,[],[],[]
2025-10-05,130.42527680922657,132.38559368725765,129.4007947965638,131.23304748535156,1961600,[],[],[]
2025-10-12,130.90797079558112,131.21334480064905,127.8738925263408,128.97718811035156,2227400,[],[],[]
2025-10-19,129.03630601031335,130.37602238234368,125.94313774513942,127.41092681884766,1779500,[],[],[]
2025-10-26,127.67688307805489,130.13960588126338,126.11060134384137,127.42807006835938,1777500,[],[],[]
2025-11-02,127.68513804202082,128.43657062662018,102.06703450151069,114.70305633544922,5047100,['RSI_OVERSOLD'],['RSI_OVERSOLD'],[]
2025-11-09,114.78215353846565,115.64235639440284,107.0700310437489,114.91068267822266,5164500,[],[],[]
2025-11-16,114.68328006091402,120.50692184487994,112.7157010753592,117.27376556396484,2746900,[],[],[]
2025-11-23,117.15511423578637,120.86286792776396,116.04773500908138,120.1509780883789,3253000,[],[],[]
2025-11-30,119.48852930748254,124.65961521692694,119.08315219875637,123.34459686279295,2137300,[],[],[]
2025-12-07,123.4731246454934,123.55222519221778,119.26112254625718,120.53659057617188,2650300,[],[],[]
2025-12-14,119.5577382392565,120.72444490270962,113.83297205936894,120.10154724121094,2917700,[],[],[]
2025-12-21,120.11144352151474,123.19627887906456,118.17351257639861,120.02245330810548,3558200,[],[],[]
2025-12-28,120.02244905131522,122.30642273678363,119.70605439556444,121.86149597167967,1343500,[],[],[]
2026-01-04,121.90103810595791,122.90954365167187,119.4193181494529,121.15949249267578,1299400,[],[],[]
2026-01-11,120.38828287586784,123.5621198728979,116.2850330968153,122.4547348022461,2450500,[],[],[]
2026-01-18,122.60303947816966,125.78676843900955,121.15948917361368,123.30504608154295,2185300,[],[],[]
2026-01-25,123.49289879622381,124.98588806730807,122.04934781961309,124.58051300048828,1495300,[],[],[]
2026-02-01,124.99577817123767,125.55935637440062,121.20892754069328,123.54234313964844,1865000,[],[],[]
2026-02-08,122.8007834281537,134.97782150042084,121.05225107397254,133.31031799316406,4927100,[],[],[]
2026-02-15,132.5857587104382,141.86615414747763,132.2582131007177,141.51876831054688,3294400,[],[],[]
2026-02-22,138.2234773285034,144.0597244456509,138.2234773285034,143.97039794921875,2386700,[],[],[]
2026-03-01,142.42199361111417,145.8165408414096,139.3847584456305,142.64036560058594,1968100,[],[],[]
2026-03-08,141.93563886113196,142.2830398395081,130.02496050425168,131.096923828125,1922100,[],[],[]
2026-03-15,129.9951790988654,133.1316591702968,126.10436937058472,127.69245147705078,2893800,[],[],[]
2026-03-22,128.51628506786432,130.4319280867629,119.41452545613382,120.15894317626952,3557900,[],[],[]
2026-03-29,122.59071811756198,126.39220231437442,120.8537397563364,121.08202362060548,2020900,[],[],[]
2026-04-05,121.64777727824666,127.68252689973863,120.19864504103799,125.07210540771484,1797500,[],[],[]
2026-04-12,123.6626687607928,131.71230555728022,123.6626687607928,130.521240234375,2314700,[],[],[]
2026-04-19,129.82646170678544,131.73216065356567,125.95548275515449,129.65773010253906,1913800,[],[],[]
2026-04-26,129.59817078840075,131.2656618627598,121.65770056359271,123.15646362304688,2054400,[],[],[]
2026-05-03,123.11676141393266,127.5237125861033,117.0224658192811,118.13412475585938,2916600,[],[],[]
2026-05-10,117.79666211505766,126.024390540421,116.58574139374336,120.56369018554688,3829800,[],[],[]
2026-05-17,120.79288554794945,120.79288554794945,114.06666843041745,114.26596069335938,3060200,[],[],[]
2026-05-24,115.19268785792542,116.90662874327985,111.1569623712229,115.82047271728516,2322900,[],[],[]
2026-05-31,115.79056648170689,117.69384200162882,112.95061657623216,115.44180297851562,1878200,[],[],[]
2026-06-07,114.28589767180515,115.35212345281657,110.84804626905222,112.96057891845705,2335700,[],[],[]
2026-06-14,111.86445781905675,118.05257897569324,110.55906839000056,117.3052215576172,2101200,[],[],[]
2026-06-21,118.28175862932589,122.11820316081037,113.36912845320511,119.89605712890624,2481900,[],[],[]
2026-06-28,119.13873446752552,127.68850153642342,118.46113010611296,125.53611755371094,2478300,[],[],[]
2026-07-05,125.16742108368359,127.77818082996899,123.48337326752177,126.5325927734375,1649900,[],[],[]
2026-07-12,125.984527838973,128.26645901687075,122.60647080352628,125.08769989013672,2049100,[],[],[]
2026-07-19,125.64571994715708,136.16850424088722,123.96167980892794,132.1427459716797,2708400,[],[],[]
2026-07-26,131.9135687694055,132.26232242316664,127.46927803301473,131.8936309814453,1780300,[],[],[]
2026-08-02,132.72071171310446,139.57000732421875,132.1699981689453,133.9600067138672,3097800,[],[],['shooting_star']
2026-08-09,137.22999572753906,138.69000244140625,134.52999877929688,135.4199981689453,2840500,[],[],[]
2026-08-16,134.38999938964844,135.0500030517578,129.55999755859375,132.10000610351562,1977900,[],[],[]
2026-08-23,133.16000366210938,135.1300048828125,130.22000122070312,134.8000030517578,2086400,[],[],[]
2026-08-30,135.36000061035156,136.63999938964844,132.0399932861328,132.99000549316406,1465700,[],[],[]
2026-09-06,132.2100067138672,132.44000244140625,126.52999877929688,127.41000366210938,1943900,[],[],[]
2026-09-13,126.1999969482422,126.98999786376952,120.73999786376952,124.83999633789062,1672200,[],[],[]
2026-09-20,125.27999877929688,126.25,123.1999969482422,124.44000244140624,2732300,[],[],[]
2026-09-27,124.83999633789062,125.9800033569336,122.74019622802734,123.08499908447266,897086,[],[],[]
