Date,Open,High,Low,Close,Volume,signal,bull_patterns,bear_patterns
2024-09-24,10.770019631723512,10.770019631723512,10.445061799346087,10.630751609802246,844,[],[],[]
2024-09-25,10.630751780750707,10.630751780750707,10.398639292588294,10.491484642028809,963,[],[],[]
2024-09-26,10.491483815685331,10.677173614501951,9.934413533796663,10.677173614501951,9929,[],[],[]
2024-09-27,10.630750943438095,10.677173614501951,10.259371345804853,10.677173614501951,2643,[],[],[]
2024-09-30,10.677174742873447,10.677174742873447,10.212949754052863,10.537907600402832,2147,[],[],[]
2024-10-01,10.537907201505353,10.537907201505353,10.305794715881348,10.305794715881348,1710,[],[],[]
2024-10-02,10.305794016868711,10.955708755446285,10.305794016868711,10.677173614501951,6123,[],[],[]
2024-10-03,10.677174677028406,11.094976987302609,10.445062184049528,10.86286449432373,3209,[],[],[]
2024-10-04,10.723597072448008,10.862864210419996,10.58432904903715,10.816441535949709,1978,[],[],[]
2024-10-07,10.58432893582849,10.955709442179668,10.58432893582849,10.630751609802246,3710,[],[],[]
2024-10-08,10.630751624568662,10.95570945739746,10.630751624568662,10.95570945739746,3194,[],[],[]
2024-10-09,10.955710310090817,10.955710310090817,10.770020484924316,10.770020484924316,3292,[],[],[]
2024-10-10,10.95570917185173,10.95570917185173,10.816441153366851,10.909286499023438,286,[],[],[]
2024-10-11,10.90928637666766,10.90928637666766,10.63075122826072,10.723596572875977,1546,[],[],[]
2024-10-14,10.723597072448008,10.816441535949709,10.537907260005737,10.816441535949709,7497,[],[],[]
2024-10-15,10.816441535949709,10.816441535949709,10.770019746918296,10.816441535949709,1329,[],[],[]
2024-10-16,10.816441535949709,10.816441535949709,10.58432904903715,10.816441535949709,2734,[],[],[]
2024-10-17,10.816440742254715,10.816440742254715,10.445061144621475,10.677173614501951,2222,[],[],[]
2024-10-18,10.816440742254715,10.816440742254715,10.491483815685331,10.677173614501951,2953,[],[],[]
2024-10-21,10.58432977431888,10.81644227713674,10.398639949152379,10.770020484924316,3016,[],[],[]
2024-10-22,10.909286617283627,11.419934253052757,10.909286617283627,11.094976425170898,6288,[],[],[]
2024-10-23,11.048554779954602,11.048554779954602,10.398639949152379,10.770020484924316,6054,[],[],[]
2024-10-24,10.81644100409173,10.81644100409173,10.398638725280762,10.398638725280762,3236,[],[],[]
2024-10-25,10.39863917886763,10.584328990279058,10.259372041668772,10.305794715881348,2277,[],[],[]
2024-10-28,10.58432893582849,10.677174283776,10.25937198888993,10.630751609802246,1293,[],[],[]
2024-10-29,10.67717416551378,10.67717416551378,10.398639010195215,10.445061683654783,557,[],[],[]
2024-10-30,10.677174283776,10.677174283776,10.445061799346087,10.630751609802246,236,[],[],[]
2024-10-31,10.630751624568662,10.95570945739746,10.352216465778099,10.95570945739746,6269,[],[],[]
2024-11-04,10.955708914984111,11.187821388244627,10.955708914984111,11.187821388244627,5613,[],[],[]
2024-11-05,11.187822058064134,11.187822058064134,10.955709570906947,11.141399383544922,1655,[],[],[]
2024-11-06,11.141399268111545,11.141399268111545,10.909286783359223,10.95570945739746,5816,[],[],[]
2024-11-07,10.909286824328213,10.909286824328213,10.212949367456199,10.305794715881348,15222,[],[],[]
2024-11-08,10.584328651428224,10.584328651428224,10.39863884596154,10.584328651428224,1358,[],[],[]
2024-11-12,10.537906864140682,10.584328651428224,10.352216173235158,10.584328651428224,5656,[],[],[]
2024-11-13,10.584329211046452,10.677174561408163,10.352216720581056,10.352216720581056,1596,[],[],[]
2024-11-14,10.491483815685331,10.862863413318573,10.259371345804853,10.677173614501951,3459,[],[],[]
2024-11-15,10.677174397977723,10.862864210419996,10.398639236594876,10.816441535949709,1858,[],[],[]
2024-11-18,10.816441885344062,11.048554379754354,10.537907600402832,10.537907600402832,3522,[],[],[]
2024-11-19,10.537906864140682,10.909286475074051,10.305794385947618,10.584328651428224,5814,[],[],[]
2024-11-20,10.584329106030447,10.81644159419286,10.398639292588294,10.491484642028809,2953,[],[],[]
2024-11-21,10.677174455470963,10.677174455470963,10.491484642028809,10.491484642028809,3451,[],[],[]
2024-11-22,11.14139960324071,11.605624586709073,10.955709786941142,11.512779235839844,69067,[],[],[]
2024-11-25,11.837737394426686,12.998299884076362,11.837737394426686,12.719764709472656,54448,[],[],[]
2024-11-26,12.9054536819458,12.9054536819458,12.487651390238277,12.9054536819458,14088,[],[],['hanging_man']
2024-11-27,12.905453464646177,12.951876137485103,12.534073852812456,12.859031677246094,6953,[],[],['hanging_man']
2024-11-28,12.905454550649296,14.669510068903094,12.719764729106506,14.20528507232666,33294,[],[],[]
2024-11-29,14.576663303398423,14.715931320144072,13.60179072793419,14.623085975646973,19980,[],[],[]
2024-12-02,14.623086980827422,15.783649439623249,14.623086980827422,15.458691596984863,24670,[],[],[]
2024-12-03,15.551536905513085,15.690804046013769,14.390974449877781,15.27300262451172,23853,[],[],[]
2024-12-04,15.273002272144405,15.644381895203955,14.623086603631895,15.22657871246338,9175,[],[],[]
2024-12-05,15.226579275978315,15.505115331739514,14.715932496732812,14.994466781616213,3661,[],[],[]
2024-12-06,14.715931938943474,15.087311561670585,14.715931938943474,14.901620864868164,2316,[],[],[]
2024-12-09,14.9016206482554,15.31942382454872,14.855198860168455,14.855198860168455,4006,[],[],[]
2024-12-10,15.133733524083212,15.133733524083212,14.298128920639687,14.762353897094728,5259,[],[],[]
2024-12-11,14.390974432238654,14.390974432238654,13.13756662751328,14.298129081726074,36344,[],[],[]
2024-12-12,14.390974893869451,14.390974893869451,13.833904543802163,14.20528507232666,4191,[],[],[]
2024-12-13,14.298129540378598,14.576664715412242,14.20528507232666,14.20528507232666,4253,[],[],[]
2024-12-16,14.483819224544936,14.66950903297472,14.205284069180829,14.530241012573242,5866,[],[],[]
2024-12-17,14.530241353486684,14.530241353486684,13.601791404115295,14.251707077026367,7217,[],[],[]
2024-12-18,14.251707077026367,14.298128866143836,13.833903891458142,14.251707077026367,2801,[],[],[]
2024-12-19,14.158861830471212,14.25170718025641,13.787482202208174,14.112439155578612,3122,[],[],[]
2024-12-20,14.112439155578612,14.112439155578612,13.787482202208174,14.112439155578612,3636,[],[],[]
2024-12-23,14.298128273710727,14.855198574427286,14.251706486516712,14.808775901794434,15849,[],[],[]
2024-12-27,15.319425180286634,15.783650185749867,15.319425180286634,15.737228393554688,11218,[],[],[]
2024-12-30,15.783648042299424,17.083477526901504,15.783648042299424,16.52640724182129,13856,[],[],[]
2025-01-02,17.17632334391276,18.24404038679127,16.897789079119296,17.408435821533203,19875,[],[],[]
2025-01-03,17.408437550427415,17.640550051099783,16.99063434086602,17.547704696655273,11876,[],[],[]
2025-01-07,17.640548030032388,19.404602478860106,17.640548030032388,18.336885452270508,20847,[],[],[]
2025-01-08,18.661844424654326,18.661844424654326,17.87266160978689,18.5225772857666,5624,[],[],[]
2025-01-09,18.5225759769781,18.5225759769781,18.10477281895877,18.476152420043945,4181,[],[],['hanging_man']
2025-01-10,18.429731936215536,18.5225772857666,17.965506959337954,18.5225772857666,5721,[],[],['hanging_man']
2025-01-13,18.47615258254261,18.522576139885064,17.91908229057658,18.336885452270508,5965,[],[],['hanging_man']
2025-01-14,18.058351949298498,18.522576916932106,18.011928390008514,18.151195526123047,4554,[],[],[]
2025-01-15,18.383306833186946,19.590292734299336,18.151194364228132,19.40460205078125,10911,[],[],[]
2025-01-16,19.497448439902506,20.611589059105157,19.40460309315601,20.24020767211914,19874,[],[],[]
2025-01-17,20.33305249956293,20.797277450561523,20.054518237314824,20.797277450561523,14070,[],[],[]
2025-01-20,20.79727825074466,21.725728188464313,20.24020793393732,21.26150321960449,30229,[],[],[]
2025-01-21,21.261502648309214,21.540038684667486,20.79727769192308,21.168657302856445,6543,[],[],[]
2025-01-22,20.982968139312014,21.168657057184863,20.054518237314824,20.797277450561523,14804,[],[],[]
2025-01-23,21.075813483687263,21.35434774593536,20.240207155187672,20.797277450561523,5148,[],[],[]
2025-01-24,20.797279144986643,21.168658781867546,20.518744860045402,21.075815200805664,5713,[],[],[]
2025-01-27,21.075814061147845,21.168657637189284,20.518743750510716,20.89012336730957,4845,[],[],[]
2025-01-28,20.890124496926312,21.075815200805664,20.70443379304696,21.075815200805664,3510,[],[],[]
2025-01-29,21.075813728281357,21.168657302856445,20.611588771895228,21.168657302856445,6020,[],[],['hanging_man']
2025-01-30,21.168658651322588,22.004265042748777,20.982969719466155,21.72572898864746,21013,[],[],[]
2025-01-31,21.7257278879042,22.839868506105514,21.7257278879042,22.1899528503418,16552,[],[],[]
2025-02-03,22.189953418051427,22.46848946516669,21.725728443737058,22.282798767089844,9953,[],[],[]
2025-02-04,22.282798001540066,22.468488693237305,22.097107309842826,22.468488693237305,7011,[],[],[]
2025-02-05,22.468487792781236,22.65417670615906,21.075812973498373,21.354347229003903,17616,[],[],[]
2025-02-06,21.54004077993281,22.28280007405,20.51874542236328,20.51874542236328,13452,[],[],[]
2025-02-07,20.518743909024533,22.56133270263672,20.518743909024533,22.56133270263672,29157,[],[],[]
2025-02-10,22.74702418994978,23.211249173418143,22.561333488211325,23.025558471679688,26869,[],[],[]
2025-02-11,23.211246808279963,23.211246808279963,22.561331189297086,22.93271255493164,7901,[],[],[]
2025-02-12,23.11840438842773,23.211249741569567,22.46849045819047,23.11840438842773,15097,[],[],['hanging_man']
2025-02-13,23.211249173418143,23.211249173418143,22.468489908219873,23.025558471679688,9272,[],[],[]
2025-02-14,23.025556891397823,23.118402235894926,22.468488366170536,22.74702262878418,7517,[],[],[]
2025-02-17,22.747022915675895,23.954007096728034,22.65417757000781,23.76831817626953,11495,[],[],[]
2025-02-18,23.768319174162496,24.046853451983125,23.489783125464122,23.954008102416992,5377,[],[],[]
2025-02-19,23.95400844871748,23.95400844871748,23.489783465053364,23.67547416687012,8697,[],[],[]
2025-02-20,23.95400787396695,24.046853222647613,23.48978290144141,23.58262825012207,5878,[],[],[]
2025-02-21,23.582628475030255,23.954008102416992,23.396939546775748,23.954008102416992,7599,[],[],[]
2025-02-24,23.95400767003005,24.046853017920256,23.39693912444429,23.86116409301757,6012,[],[],[]
2025-02-25,23.7683195177785,23.7683195177785,23.118403832297627,23.67547416687012,5095,[],[],[]
2025-02-26,23.675474156886505,23.675474156886505,22.561333488211325,23.025558471679688,7317,[],[],[]
2025-02-27,23.025557178949462,23.396938561575805,20.890123083236368,21.818572998046875,14565,[],[],[]
2025-02-28,22.09710804572453,22.09710804572453,20.890123822130317,21.63288307189941,6330,[],[],[]
2025-03-03,21.35434856755199,21.35434856755199,20.51874397777985,21.26150321960449,11267,[],[],[]
2025-03-04,20.890123677808184,21.354348648426143,19.31175806935603,19.961673736572266,21904,[],[],[]
2025-03-05,21.3543488184611,22.93271443948106,21.3543488184611,22.282798767089844,15772,[],[],[]
2025-03-06,22.839867973281276,23.396938269386215,22.28279767717634,22.74702262878418,13298,[],[],[]
2025-03-07,22.375644116128267,22.6541783923658,22.282798767089844,22.282798767089844,3628,[],[],[]
2025-03-10,22.6541783923658,22.83986909044264,22.004264490852318,22.282798767089844,3262,[],[],[]
2025-03-11,22.282799112093024,22.282799112093024,21.540039850041033,22.00426483154297,3457,[],[],[]
2025-03-12,22.00426426287139,22.00426426287139,21.16865790106085,21.91141891479492,2022,[],[],[]
2025-03-13,21.91141834370346,22.004263689360045,21.168657349328452,21.818572998046875,2545,[],[],[]
2025-03-14,21.81857353641182,21.81857353641182,20.982968946639673,21.26150321960449,11655,[],[],[]
2025-03-17,21.075814633498133,21.81857388726675,20.890123934617105,20.982969284057617,13662,[],[],[]
2025-03-18,21.075814003018166,22.747023159442453,21.075814003018166,22.1899528503418,9715,[],[],[]
2025-03-19,22.65417861938477,22.932714669291258,22.18995364041837,22.65417861938477,3896,[],[],[]
2025-03-20,23.118402524606054,23.118402524606054,21.447193386298206,21.818572998046875,7108,[],[],[]
2025-03-21,22.18995315732414,22.18995315732414,21.168657871656972,21.26150321960449,5512,[],[],[]
2025-03-24,21.354347229003903,21.354347229003903,20.982967631370663,21.354347229003903,7732,[],[],[]
2025-03-25,22.5613317377012,24.789612902161554,22.46848816491338,24.32538795471192,44073,[],[],[]
2025-03-26,24.511077986493536,24.511077986493536,23.025557732883495,23.86116409301757,19344,[],[],[]
2025-03-27,24.418233317940658,24.975303649902344,23.489783354963784,24.975303649902344,17059,[],[],['hanging_man']
2025-03-28,24.975303662334355,25.903753625773383,24.88245831181489,25.625219345092773,16813,[],[],[]
2025-03-31,25.06814842987483,25.439528052438177,23.86116421382454,24.882457733154297,14582,[],[],[]
2025-04-01,23.95400887755925,25.06814956665039,23.95400887755925,25.06814956665039,6981,[],[],[]
2025-04-02,25.06814842987483,25.06814842987483,24.32538918474815,24.882457733154297,2621,[],[],[]
2025-04-03,24.418233079369863,24.882458056322733,23.954008102416992,23.954008102416992,6761,[],[],[]
2025-04-04,24.418232606163073,24.418232606163073,22.468489157447763,23.21124839782715,20231,[],[],[]
2025-04-07,22.28279767717634,23.21124758039202,21.261502429463565,22.74702262878418,23465,[],[],[]
2025-04-08,23.211249741569567,23.39694044785325,22.747024746738177,23.11840438842773,4045,[],[],[]
2025-04-09,22.74702262878418,23.21124758039202,22.375643021673437,22.74702262878418,8454,[],[],[]
2025-04-10,23.95400787396695,24.51107819517316,22.932714351112942,23.58262825012207,9984,[],[],[]
2025-04-11,23.861164061317393,23.861164061317393,22.932714125404306,23.21124839782715,3865,[],[],[]
2025-04-14,23.582628815961748,23.67547416687012,23.211249183206,23.67547416687012,2280,[],[],[]
2025-04-15,23.67547336578369,23.67547336578369,22.839868777637456,23.21124839782715,8373,[],[],[]
2025-04-16,23.21124732605158,23.21124732605158,22.37564277648925,22.37564277648925,17007,[],[],[]
2025-04-17,22.74702396935359,23.11840359835117,22.375644340356025,22.65417861938477,5112,[],[],[]
2025-04-22,22.65417939359634,23.11840438842773,22.561334040454494,23.11840438842773,5272,[],[],[]
2025-04-23,23.118403614507766,23.489783243764872,22.74702398525065,23.304094314575195,4176,[],[],[]
2025-04-24,22.839869540819006,23.30409452428737,22.375644557350643,23.025558471679688,8021,[],[],[]
2025-04-25,23.025558471679688,23.30409452428737,22.74702418994978,23.025558471679688,3342,[],[],[]
2025-04-28,23.02555746830119,23.11840281512453,22.65417785188557,22.839868545532227,3481,[],[],[]
2025-04-29,22.839870099880017,23.211249741569567,22.65417939359634,23.11840438842773,4914,[],[],[]
2025-04-30,23.11840382254892,23.211249173418143,22.654178839080558,23.025558471679688,1452,[],[],[]
2025-05-02,23.025557226573664,23.211247918270903,22.004263734871888,22.468488693237305,8912,[],[],[]
2025-05-05,22.468489908219873,23.11840382254892,22.282799206481414,23.025558471679688,5808,[],[],[]
2025-05-06,23.02555746830119,23.11840281512453,22.747023198708895,22.839868545532227,2257,[],[],[]
2025-05-07,22.839867973281276,22.932713317778376,22.654177284287087,22.74702262878418,4129,[],[],[]
2025-05-08,22.74702262878418,22.74702262878418,22.375643021673437,22.74702262878418,4304,[],[],[]
2025-05-09,22.74702262878418,22.839867973281276,22.28279767717634,22.74702262878418,4566,[],[],[]
2025-05-12,22.932714669291258,22.932714669291258,22.468489690324855,22.65417861938477,4439,[],[],[]
2025-05-13,22.747023429870605,24.046852985973388,22.097107766380358,23.21124839782715,21166,[],[],[]
2025-05-14,23.58262804934698,24.046853017920256,23.39693912444429,23.86116409301757,7493,[],[],[]
2025-05-15,23.675473397237173,24.046853017920256,23.489782701456775,23.86116409301757,7093,[],[],[]
2025-05-16,23.954006821086825,25.25383810372744,23.86116324736477,24.69676780700684,12241,[],[],[]
2025-05-19,24.78961527981651,25.06814956665039,24.3253902878415,25.06814956665039,16495,[],[],[]
2025-05-20,25.71806300170945,27.29642677307129,25.439526968496676,27.29642677307129,37901,[],[],[]
2025-05-21,27.296427551384014,30.63884764909745,26.553668316726665,29.71039772033692,44552,[],[],[]
2025-05-22,29.617552092820073,30.174622398976712,27.574963331415947,28.68910217285156,17827,[],[],[]
2025-05-23,28.59625806272301,28.78194876309408,26.089444232980185,27.57496452331543,26924,[],[],[]
2025-05-26,27.667806636519746,29.710397148854565,27.389272371600303,29.617551803588867,21875,[],[],[]
2025-05-27,29.617553143656018,29.710398493122568,29.431864215600644,29.524707794189453,7655,[],[],[]
2025-05-28,29.524707331947866,29.524707331947866,28.31772312041252,28.78194808959961,3989,[],[],[]
2025-05-29,29.43186378479004,29.7103980582349,28.410568497362668,29.43186378479004,12022,[],[],[]
2025-05-30,29.524707794189453,29.524707794189453,29.060482817734414,29.524707794189453,2137,[],[],['hanging_man']
2025-06-02,29.524707455410425,30.08177954581769,28.039188964501964,29.803241729736328,7498,[],[],[]
2025-06-03,30.08177881593865,31.103072310938977,29.896088123641675,30.63884735107422,11916,[],[],[]
2025-06-04,30.638846269294397,31.47445258424998,30.453155583553688,31.103071212768555,8527,[],[],[]
2025-06-05,31.474455309129556,32.03152387282428,31.195917485526646,31.56729888916016,5715,[],[],[]
2025-06-06,31.567298528911888,31.567298528911888,30.08178001484177,31.1959171295166,4840,[],[],[]
2025-06-09,31.195916326896235,31.56729771673648,30.73169136047364,30.73169136047364,4842,[],[],[]
2025-06-10,31.010229864249524,31.103073442899262,29.2461735358605,30.174623489379883,12375,[],[],[]
2025-06-11,29.89608759189598,30.453156117123267,28.967637688680302,29.246171951293945,4057,[],[],[]
2025-06-12,29.246172755956657,30.453156954994263,29.246172755956657,29.71039772033692,3358,[],[],[]
2025-06-13,29.339019232636062,30.638848828772048,28.96763960100832,30.54600524902344,3724,[],[],[]
2025-06-16,30.54600454428881,30.6388481218954,29.8960888757763,30.45315742492676,3457,[],[],[]
2025-06-17,30.453158220015162,31.56729888916016,30.1746239381678,31.56729888916016,8642,[],[],[]
2025-06-18,31.93868106396497,34.166958914302015,31.93868106396497,33.331356048583984,19279,[],[],[]
2025-06-20,33.6098904038022,35.28109968030775,33.5170432795901,34.3526496887207,29534,[],[],[]
2025-06-23,34.07411533202966,35.00256532177568,32.95997463598333,33.331356048583984,12245,[],[],[]
2025-06-24,33.98126602172852,34.72402879914227,33.42419748042363,33.98126602172852,6202,[],[],[]
2025-06-25,34.35264668782552,35.00256233351383,33.98126530693067,34.816871643066406,5780,[],[],[]
2025-06-26,35.00256266718578,35.00256266718578,33.51704067120057,34.53833770751953,5251,[],[],[]
2025-06-27,34.53833727625195,34.53833727625195,32.7742810348452,33.51704025268555,13171,[],[],[]
2025-06-30,33.51703853352153,33.51703853352153,31.845829493661967,32.86712646484375,6825,[],[],[]
2025-07-01,32.867128096714644,33.79557800292969,32.310056027932426,33.79557800292969,6525,[],[],[]
2025-07-02,33.981267928441035,34.81687432904025,33.23850865110597,34.63118362426758,4842,[],[],[]
2025-07-03,34.81687390503598,35.188255310058594,33.98126751461289,35.188255310058594,10672,[],[],['hanging_man']
2025-07-04,35.281098242696196,37.32368884930865,35.18825466402288,37.0451545715332,26178,[],[],[]
2025-07-07,37.416532566874075,40.48041671728831,37.416532566874075,39.36627960205078,27948,[],[],[]
2025-07-08,39.366277261382976,41.780245589873545,39.18058657263247,41.59455490112305,39866,[],[],[]
2025-07-09,42.80154263328883,43.265767622985045,41.594558368429794,43.17292404174805,19990,[],[],['hanging_man']
2025-07-10,43.265765844891654,45.86542851375659,39.45912250252657,39.92334747314453,60074,[],[],[]
2025-07-11,40.109035992220015,41.780245087363504,40.109035992220015,40.8517951965332,19874,[],[],[]
2025-07-14,40.85179610734674,42.80153950485887,40.85179610734674,42.61585235595703,15733,[],[],[]
2025-07-15,42.61585547081483,44.379908306607085,42.61585547081483,43.17292404174805,21711,[],[],['shooting_star']
2025-07-16,43.17292369407138,44.1013736659869,42.151630141666544,43.45145797729492,17510,[],[],[]
2025-07-17,43.45145515128137,43.54430226748764,41.78024601887735,42.61585235595703,8064,[],[],[]
2025-07-18,42.523005239750766,43.17292088617326,41.87308959332827,42.61585235595703,4304,[],[],[]
2025-07-21,42.70869693727378,42.70869693727378,39.92334713701679,40.201881408691406,18055,[],[],[]
2025-07-22,40.48041534423828,41.408865269947924,37.602221991240555,40.48041534423828,32125,[],[],[]
2025-07-23,40.1090389316191,40.85179819036555,38.99489827262166,39.08774185180664,7693,[],[],[]
2025-07-24,39.737653977397756,39.8305010900344,37.04515146252864,38.8092041015625,18418,[],[],[]
2025-07-25,38.623515214363756,38.71636233131858,37.50937814494885,38.43782806396485,5717,[],[],[]
2025-07-28,38.43782820610932,40.66610589493477,38.43782820610932,39.45912170410156,10188,[],[],[]
2025-07-29,39.92334829136402,41.68740463256836,39.55196689055609,41.68740463256836,9923,[],[],[]
2025-07-30,41.59455290717766,41.687400017979684,39.6448096231518,40.944637298583984,4636,[],[],[]
2025-07-31,41.22317951645402,41.31602309547198,39.08774178148588,39.36627960205078,5714,[],[],[]
2025-08-01,39.36628080892267,40.29473079458824,38.716365110605636,39.273433685302734,5884,[],[],[]
2025-08-04,39.273430682312,40.38757128827053,38.90205284149605,39.73765563964844,6893,[],[],[]
2025-08-05,39.55196375698043,40.29472649974956,39.3662766130434,39.83050155639648,2896,[],[],[]
2025-08-06,40.109038512179,40.48041636679077,39.27343214123039,39.644813537597656,3950,[],[],[]
2025-08-07,39.64481432286413,40.10903930664063,39.45912362100242,40.10903930664063,4972,[],[],[]
2025-08-08,40.67912522835323,41.25887746419105,39.22975016768575,40.0993766784668,4926,[],[],[]
2025-08-11,39.61625107814286,40.969002589338025,39.036502536745694,39.42300033569336,8033,[],[],[]
2025-08-12,39.03650301551824,39.71287509346002,38.650001525878906,38.650001525878906,5376,[],[],[]
2025-08-13,38.650002019259354,38.650002019259354,37.10400341286955,37.87700271606445,15211,[],[],[]
2025-08-14,37.87700027355013,37.87700027355013,36.3309980809035,37.00737380981445,9231,[],[],[]
2025-08-18,37.00737347240092,37.297247729019496,35.46137497980107,35.94449996948242,25061,[],[],[]
2025-08-19,35.944500456407425,39.42299895485441,35.26812472450073,38.45674896240234,17934,[],[],[]
2025-08-20,38.55337675258799,41.16224882265304,38.55337675258799,40.96900177001953,14213,[],[],[]
2025-08-21,41.258877555470164,42.708252619344165,41.258877555470164,41.54875183105469,13207,[],[],[]
2025-08-22,41.54874844033574,41.74199917027171,38.93987280107793,40.77574920654297,13080,[],[],[]
2025-08-25,40.58249984967507,40.58249984967507,39.2297483803054,39.90612411499024,4533,[],[],[]
2025-08-26,39.90612276480667,41.355497710399774,39.71287203487069,40.77574920654297,4734,[],[],[]
2025-08-27,41.45212771723463,41.45212771723463,39.809501930793736,40.87237548828125,2995,[],[],[]
2025-08-28,41.355501085347875,42.99812689492869,40.87237606405654,41.54875183105469,21013,[],[],[]
2025-08-29,41.83862620192437,42.321751224315996,39.22975034381931,39.71287536621094,18635,[],[],[]
2025-09-01,39.7128740045733,40.582500489441856,38.263498987093236,38.74662399291992,11382,[],[],[]
2025-09-02,38.649998345714856,39.32637405395508,38.36012409531221,39.32637405395508,3560,[],[],[]
2025-09-03,39.326376180785054,40.77575119713376,39.326376180785054,40.58250045776367,5412,[],[],[]
2025-09-04,42.41837501456854,44.060997009277344,41.548748570115904,44.060997009277344,31739,[],[],[]
2025-09-05,44.25424773981695,45.02724697602423,43.094747042530464,44.060997009277344,15701,[],[],[]
2025-09-08,44.15762659264003,47.24962738973049,44.15762659264003,46.76650238037109,15240,[],[],[]
2025-09-09,46.37999968833111,46.66987394919294,45.12387543396239,45.41374969482422,6753,[],[],[]
2025-09-10,44.93062426244862,46.28337571462324,43.67450002025857,46.18674850463867,8108,[],[],[]
2025-09-11,46.18674787878736,46.18674787878736,44.54412219081968,45.510372161865234,3392,[],[],[]
2025-09-12,45.607000430715836,46.09012542746929,44.640750437208936,45.41374969482422,3161,[],[],[]
2025-09-15,45.41375075500909,45.800252235815215,44.64075147934813,45.3171272277832,3754,[],[],[]
2025-09-16,45.317126169854006,45.80025116660746,44.930624698070766,45.41374969482422,3757,[],[],[]
2025-09-17,44.93062500921952,46.57325074674682,44.93062500921952,46.47662353515625,11230,[],[],[]
2025-09-18,46.669874262809756,48.8922485256195,46.4766235256195,48.3125,14586,[],[],[]
2025-09-19,48.21587631386424,50.051749096181666,47.34624984237883,48.69900131225586,19399,[],[],[]
2025-09-22,49.27875045308597,50.82474899291992,48.31250044420193,50.82474899291992,10319,[],[],[]
2025-09-23,51.21124847312766,51.4044992045561,49.665249993602366,51.01799774169922,20025,[],[],[]
2025-09-24,51.017998023178805,51.017998023178805,48.89224733763986,50.63150024414063,7894,[],[],[]
2025-09-25,50.63150223545645,51.01800002969542,49.858499275075935,50.43825149536133,2886,[],[],[]
2025-09-26,51.01799862846734,51.211249363254765,49.47200012207031,49.47200012207031,2610,[],[],[]
2025-09-29,50.82474836013243,50.82474836013243,46.76650132210721,46.86312484741211,17786,[],[],[]
2025-09-30,46.959749607086145,47.6361253598531,45.02724956258134,46.380001068115234,9139,[],[],[]
2025-10-01,46.28337754027052,47.15300034872689,45.60700178750358,46.380001068115234,3601,[],[],[]
2025-10-02,46.863125000000004,48.3125,46.57325073719025,48.3125,7198,[],[],[]
2025-10-03,48.312499842692894,48.312499842692894,46.37999984898518,46.86312484741211,6137,[],[],[]
2025-10-06,46.573251208523125,46.66987473512049,45.02724898130645,45.7036247253418,8310,[],[],[]
2025-10-07,45.99349821654786,46.37999968833111,45.027248223040964,45.41374969482422,3059,[],[],[]
2025-10-08,45.80025349103171,45.80025349103171,44.25425121138826,44.83400344848633,6907,[],[],[]
2025-10-09,44.640751049841356,45.22049957952125,42.99812530114662,44.25424957275391,7754,[],[],[]
2025-10-10,45.123875590265406,46.959748372717,45.123875590265406,46.86312484741211,28573,[],[],[]
2025-10-13,46.38,48.8922485256195,45.896875,48.3125,9769,[],[],[]
2025-10-14,49.08550057575485,49.278751318114196,44.44750118888731,45.993499755859375,17550,[],[],[]
2025-10-15,46.76650294303904,49.47200229081249,46.76650294303904,48.89225006103516,14963,[],[],[]
2025-10-16,48.89224853565192,48.89224853565192,46.186749272287024,46.47662353515625,10363,[],[],[]
2025-10-17,46.959747163539056,47.73275008987889,46.57324938632028,47.34624862670898,7319,[],[],[]
2025-10-20,47.73275147438049,48.50575073719025,47.73275147438049,48.3125,13972,[],[],[]
2025-10-21,48.3125015172092,49.08550080429428,48.3125015172092,48.89225006103516,5561,[],[],[]
2025-10-22,48.8922485256195,48.8922485256195,47.925998525619505,48.3125,1431,[],[],[]
2025-10-23,48.312500163432105,48.312500163432105,47.53950089800744,47.92599868774414,2858,[],[],[]
2025-10-24,47.82937423538155,48.215875703583286,47.442872767179814,48.02262496948242,2064,[],[],[]
2025-10-27,48.02262713691618,48.31250140817496,46.66987562310675,47.44287490844727,4509,[],[],[]
2025-10-28,47.63612613664157,48.119251155645955,46.66987609863281,46.66987609863281,6810,[],[],[]
2025-10-29,46.66987487162723,47.539501357352165,46.38000060503601,47.15299987792969,7664,[],[],[]
2025-10-30,46.57324953599227,47.24962525573771,46.379998803786265,46.959747314453125,2729,[],[],[]
2025-10-31,48.89224988813957,49.85849991506684,47.92599986121229,49.278751373291016,12153,[],[],[]
2025-11-03,49.278748802629174,50.63150024414063,49.278748802629174,50.63150024414063,13722,[],[],[]
2025-11-04,50.63150084484368,50.63150084484368,49.278749387282886,49.47200012207031,3388,[],[],[]
2025-11-05,49.47200211586674,49.47200211586674,48.69900283151519,49.278751373291016,1240,[],[],[]
2025-11-06,49.2787487290229,49.2787487290229,46.8631237913257,46.959747314453125,6708,[],[],[]
2025-11-07,46.86312364072215,47.829373612695804,46.6698729091372,47.34624862670898,3452,[],[],[]
2025-11-10,47.346250000000005,48.3125,47.05637573719025,48.3125,2788,[],[],[]
2025-11-12,48.31249922765814,48.31249922765814,47.442872767179814,48.02262496948242,1577,[],[],[]
2025-11-13,47.82937439196007,48.02262512669358,47.34624939810189,47.63612365722656,1442,[],[],[]
2025-11-14,47.4428741445209,47.4428741445209,46.76650208445849,47.15299987792969,2873,[],[],[]
2025-11-17,47.153001117637196,47.153001117637196,45.896876805416085,46.66987609863281,3659,[],[],[]
2025-11-18,46.28337472658567,46.28337472658567,44.4474983215332,44.4474983215332,7360,[],[],[]
2025-11-19,44.447501654461945,45.89687670841179,44.447501654461945,45.22050094604492,4281,[],[],[]
2025-11-20,45.993499699467314,48.21587770494793,45.89687617138179,47.829376220703125,8167,[],[],[]
2025-11-21,47.34625078713714,47.82937579516915,43.86775220368717,45.3171272277832,10788,[],[],[]
2025-11-24,45.3171261669421,45.4137496919061,43.48124970501648,43.57787322998047,13833,[],[],[]
2025-11-25,43.86775220368717,46.18675003067005,43.86775220368717,45.3171272277832,6333,[],[],[]
2025-11-26,44.930625586128635,47.15299987792969,44.930625586128635,47.15299987792969,8568,[],[],[]
2025-11-27,47.152997895124024,47.73275008987889,46.47662217755223,47.34624862670898,4394,[],[],[]
2025-11-28,46.863125446550235,48.11924972132937,46.863125446550235,47.53950119018555,3174,[],[],[]
2025-12-01,48.50574970604822,50.631500398048956,48.50574970604822,50.244998931884766,22783,[],[],[]
2025-12-02,50.631502885369734,52.17750145407284,48.022627075475825,49.278751373291016,40860,[],[],[]
2025-12-03,49.858497619628906,50.05174835330755,48.699000589459395,49.858497619628906,8167,[],[],[]
2025-12-04,49.85850040283802,50.43825263623697,47.53950252709635,48.50575256347656,15529,[],[],[]
2025-12-05,48.892248074407654,49.278749545221245,47.5395002984625,49.08549880981445,2719,[],[],[]
2025-12-08,49.278751373291016,49.85849991506684,48.50575208893946,49.278751373291016,5527,[],[],[]
2025-12-09,49.278751373291016,50.051750657642565,49.085500630715295,49.278751373291016,3634,[],[],[]
2025-12-10,49.085499262809755,49.8584985256195,47.829375000000006,48.3125,6243,[],[],[]
2025-12-11,48.892248074407654,49.08549880981445,47.4428730877835,49.08549880981445,6062,[],[],[]
2025-12-12,49.085500630715295,49.278751373291016,48.50575208893946,49.278751373291016,5333,[],[],[]
2025-12-15,49.66525307203227,52.1775016784668,49.47200232862546,52.1775016784668,16092,[],[],[]
2025-12-16,52.75725042574023,56.23575276259375,52.37075262339076,55.07625198364258,16552,[],[],[]
2025-12-17,55.0762506212507,55.0762506212507,53.530252078192596,54.11000061035156,8629,[],[],[]
2025-12-18,54.11000061035156,54.88299988188062,53.916749870981484,54.11000061035156,6413,[],[],[]
2025-12-19,54.30324951253908,54.68974729225201,53.53025026716207,53.916748046875,3431,[],[],[]
2025-12-22,54.88299925807473,55.26950073242188,54.30325073250524,55.26950073242188,7868,[],[],['hanging_man']
2025-12-23,55.849251008049436,59.5210003855981,55.656000264820264,58.74800109863281,14668,[],[],[]
2025-12-29,58.94124984741211,59.907499844910674,57.97499984991355,58.94124984741211,10035,[],[],[]
2025-12-30,59.13449933682508,59.52099711610167,56.62224718474702,57.588497161865234,7961,[],[],['evening_star']
2026-01-02,57.58849744548672,57.78174817905235,55.07624896698708,57.20199966430664,15290,[],[],[]
2026-01-05,57.58849822013309,59.714248946047,56.235750438879684,59.32775115966797,16282,[],[],[]
2026-01-07,59.520999570626415,62.80625110268589,59.520999570626415,60.29400253295898,33997,[],[],['shooting_star']
2026-01-08,60.48724975813585,61.0670019815199,58.94125120101437,59.907501220703125,11131,[],[],[]
2026-01-09,59.907499844910674,59.907499844910674,57.39525132579491,58.94124984741211,22663,[],[],[]
2026-01-12,58.36150224046675,58.94125077369636,53.530252177049015,57.3952522277832,25051,[],[],[]
2026-01-13,57.39525239611483,57.78175019075102,56.42900238059742,57.008750915527344,7600,[],[],[]
2026-01-14,56.42900350674417,56.81550130909365,54.49650343714268,55.07625198364258,17678,[],[],[]
2026-01-15,55.269502727793004,55.269502727793004,54.68975049534173,55.07625198364258,8139,[],[],[]
2026-01-16,55.07624860232413,55.07624860232413,53.916747894558654,54.30324935913086,11865,[],[],[]
2026-01-19,54.30324995760483,54.689747740485465,52.757247768228716,53.14374923706055,11462,[],[],[]
2026-01-20,53.14374923706055,53.33699997147646,52.17749925093217,53.14374923706055,7393,[],[],[]
2026-01-21,53.143751745356866,56.04250184055815,53.143751745356866,55.46275329589844,19724,[],[],[]
2026-01-22,55.849250325749786,57.008751085008,55.849250325749786,56.62224960327149,22608,[],[],[]
2026-01-23,57.78174895587895,57.97499969204267,54.68974823511309,55.65599822998047,11926,[],[],[]
2026-01-26,55.65599852081779,56.235750732338516,54.689748520901155,55.26950073242188,6741,[],[],[]
2026-01-27,55.26949949074814,55.26949949074814,53.14374880149799,53.916748046875,11962,[],[],[]
2026-01-28,53.91675120469141,56.42900350674417,53.53025340234193,55.07625198364258,7535,[],[],[]
2026-01-29,54.11000148298008,57.202002304912064,53.916750740493455,55.84925079345703,13771,[],[],[]
2026-01-30,55.84925079345703,57.008751562425445,54.68975002448861,55.84925079345703,6474,[],[],[]
2026-02-02,55.46275146959545,55.46275146959545,51.21124999558176,55.26950073242188,24683,[],[],[]
2026-02-03,56.04249867285655,57.97499862709299,55.46275016096608,57.588497161865234,10867,[],[],[]
2026-02-04,57.97499984991355,59.71424910822071,57.39525132579491,58.94124984741211,12096,[],[],[]
2026-02-05,58.74799878294716,59.90749951066642,54.88299881451706,56.04249954223633,9606,[],[],[]
2026-02-06,58.36150116479358,59.32775115966797,56.6222482252587,59.32775115966797,13940,[],[],[]
2026-02-09,59.3277499128977,60.68049766572317,57.201999231656366,57.97499847412109,17267,[],[],[]
2026-02-10,56.4290030209169,57.78175084642061,55.84925079345703,55.84925079345703,18455,[],[],[]
2026-02-11,56.042500900009934,57.78175019075102,55.46275236508,57.008750915527344,3798,[],[],[]
2026-02-12,57.588497009913155,58.36149993832902,57.008748499552404,57.97499847412109,2942,[],[],[]
2026-02-13,57.0087490861432,57.0087490861432,55.07624911712139,56.81549835205078,9773,[],[],[]
2026-02-16,57.008749534343856,58.16825026206312,55.84924880662459,56.04249954223633,2441,[],[],[]
2026-02-17,57.58849789299379,57.58849789299379,55.655997914222844,56.42900085449219,2082,[],[],[]
2026-02-18,56.42900101345982,57.395251005567346,55.84924880662459,56.04249954223633,3575,[],[],[]
2026-02-19,56.04250046094258,57.00875046888986,54.110000445048,54.49650192260742,9756,[],[],[]
2026-02-20,54.68975049534173,56.04250201844333,54.68975049534173,55.07625198364258,2846,[],[],[]
2026-02-23,55.07624831927535,57.395249722888444,53.9167476174688,54.68974685668945,5383,[],[],[]
2026-02-24,54.882998025084056,55.655997270461064,53.14374880149799,53.916748046875,7531,[],[],[]
2026-02-25,53.72349775435709,54.10999922318892,52.17749925093217,53.14374923706055,6874,[],[],[]
2026-02-26,53.337000129773045,53.723497913800756,52.75724792480469,52.75724792480469,6320,[],[],[]
2026-02-27,52.564002990722656,52.564002990722656,51.597752962848716,52.564002990722656,7651,[],[],[]
2026-03-02,51.597751327660006,52.17749985163098,48.505750599262,51.98424911499024,18861,['hammer'],['hammer'],[]
2026-03-03,52.17749982629504,53.14374982307828,48.69900131225586,48.69900131225586,15327,"['engulfing', 'RSI_OVERSOLD']",['RSI_OVERSOLD'],[]
2026-03-04,48.69900260145651,53.337001971606824,48.69900260145651,52.95050048828125,9285,[],[],[]
2026-03-05,52.17749940578753,55.07624937277573,51.59775088677037,52.75724792480469,7491,[],[],[]
2026-03-06,52.17749889080341,52.564000356967604,49.85849746572057,50.244998931884766,8424,[],[],[]
2026-03-09,49.278749387282886,50.0517486404814,48.31249939929695,49.47200012207031,18908,[],[],[]
2026-03-10,50.05175001517107,52.564002264505156,49.27875074074185,50.43825149536133,10816,[],[],[]
2026-03-11,50.245000000000005,50.245000000000005,47.63612426280976,48.3125,12386,[],[],[]
2026-03-12,48.505749176909596,48.69899990788356,47.63612273050231,47.73274993896485,6366,[],[],[]
2026-03-13,47.539500746945095,47.539500746945095,45.70362427218789,46.47662353515625,10944,[],[],[]
2026-03-16,45.993497589288474,46.37999905580062,42.99812412464849,44.73737335205078,30753,['RSI_OVERSOLD'],['RSI_OVERSOLD'],[]
2026-03-17,44.73737380635388,46.76650099722142,44.44749954650172,45.80025100708008,30306,[],[],[]
2026-03-18,46.38000094506049,47.05637669603288,44.930625915527344,44.930625915527344,12050,[],[],[]
2026-03-19,44.4474983215332,44.64074905142574,42.611621916480736,44.4474983215332,9814,[],[],[]
2026-03-20,44.44750195708762,46.38000204217838,43.57787544441621,44.83400344848633,7144,[],[],[]
2026-03-23,43.48124835802162,45.22049755515226,41.54874843099843,44.4474983215332,34307,[],[],[]
2026-03-24,44.35087585449219,44.834000847739595,43.48124939226639,44.35087585449219,3701,[],[],[]
2026-03-25,47.05637422353153,49.08549768388038,46.57324923907217,47.73274993896485,22302,[],[],[]
2026-03-26,48.89224869101278,49.08549942885677,46.38000015689482,47.92599868774414,7198,[],[],[]
2026-03-27,48.215875703583286,48.31249922765814,46.95974777490323,48.02262496948242,5016,[],[],[]
2026-03-30,47.34624922279532,47.34624922279532,44.93062426244862,46.18674850463867,12043,[],[],[]
2026-03-31,46.090127376521146,47.24962815495245,45.51037514432981,47.05637741088867,3001,[],[],[]
2026-04-01,46.95974701506898,48.892246952906405,46.86312349255756,47.73274993896485,12100,[],[],[]
2026-04-02,46.379998508098204,47.73274993896485,46.379998508098204,47.73274993896485,5736,[],[],[]
2026-04-07,47.63612550721233,48.21587773392798,45.70362545672946,46.91143798828125,8844,[],[],[]
2026-04-08,47.87768737070763,50.24500063795541,46.91143735843926,48.07093811035156,18412,[],[],[]
2026-04-09,47.53949981118511,48.31249905893789,47.29793731589042,47.491188049316406,5176,[],[],[]
2026-04-10,50.245000299417754,51.88762604639666,50.245000299417754,51.21125030517578,50179,[],[],[]
2026-04-13,51.114627608824044,54.979627694604275,50.824749653629475,54.786376953125,37668,[],[],[]
2026-04-14,55.26949985121381,57.87837554658348,54.303249866702906,56.81549835205078,52147,[],[],[]
2026-04-15,57.008749373742994,57.78174862806114,56.332373643982926,56.42900085449219,13918,[],[],[]
2026-04-16,56.42900242050565,57.20200169627601,54.689749442583214,55.1728744506836,20973,[],[],[]
2026-04-17,55.26949985121381,58.941249055164995,55.26949985121381,56.81549835205078,36344,[],[],[]
2026-04-20,57.008751161636845,60.10075196183114,56.81550042050883,59.907501220703125,25263,[],[],[]
2026-04-21,60.87375147892878,62.806251525878906,60.390626467191254,62.806251525878906,40483,[],[],[]
2026-04-22,62.709627704500974,63.772501250969945,61.356876203584726,61.74337768554688,20770,[],[],[]
2026-04-23,61.743375080647155,61.83999860408558,58.45812368042465,61.260250091552734,17951,[],[],[]
2026-04-24,61.26025254992338,61.3568760772393,59.520999570626415,60.29400253295898,9694,[],[],[]
2026-04-27,60.29400130907695,62.999496878518016,60.29400130907695,62.61300277709961,13995,[],[],[]
2026-04-28,62.61300404805405,62.80625110268589,60.19737531969176,60.29400253295898,9085,[],[],[]
2026-04-29,60.29400306428499,60.390626592452385,57.00875150327505,57.68512725830078,14643,[],[],[]
2026-04-30,57.68512691260924,59.907501220703125,56.525626151792466,59.907501220703125,23449,[],[],[]
2026-05-04,60.39062514901161,62.419748679637905,60.004123673677434,61.84000015258789,13949,[],[],[]
2026-05-05,62.41975021362305,62.41975021362305,61.646750929909246,62.41975021362305,12819,[],[],[]
2026-05-06,62.70962557411192,65.51175200826466,62.03324616068064,63.772499084472656,34293,[],[],[]
2026-05-07,64.06237671826413,64.73874875651154,63.772498775071064,64.54550170898438,9556,[],[],[]
2026-05-08,64.73874857138718,64.73874857138718,61.45349716950347,63.09612655639648,11080,[],[],[]
2026-05-11,63.096126235712184,63.096126235712184,60.58387409234865,61.64674758911133,10430,[],[],[]
2026-05-12,61.74337484931941,61.74337484931941,57.97499847412109,57.97499847412109,23677,[],[],[]
2026-05-13,58.26487579920779,59.71425083742665,57.39525298784728,57.68512725830078,11758,[],[],[]
2026-05-14,57.97499898538801,60.487247467041016,57.97499898538801,60.487247467041016,13530,[],[],[]
2026-05-15,60.6805004531266,63.2893762414929,57.97500113724541,61.74337768554688,14605,[],[],[]
2026-05-18,61.83999954199527,62.80624953483895,59.90749955630792,61.16362380981445,10423,[],[],[]
2026-05-19,61.06700012689857,63.77249936267009,59.90749940129615,61.55012512207031,20862,[],[],[]
2026-05-20,62.22650279264092,62.51637337564031,56.71887693877233,58.071624755859375,56924,[],[],[]
2026-05-21,58.16825058660351,59.42437484616139,58.16825058660351,58.94124984741211,9223,[],[],[]
2026-05-22,58.94124824980385,58.94124824980385,55.269499096022685,56.5256233215332,32432,[],[],[]
2026-05-25,56.525624699741606,56.718875435905325,54.78637544617057,55.65599822998047,17822,[],[],[]
2026-05-26,55.75262737500933,57.588500217370175,55.75262737500933,57.29862594604492,8238,[],[],[]
2026-05-27,57.29862395844526,57.58849821971523,55.07624970744054,55.65599822998047,9504,[],[],[]
2026-05-28,55.559373778776255,56.04249876815692,55.17287231289125,55.75262451171875,4353,[],[],[]
2026-05-29,55.75262512473211,57.008749373742994,55.55937438966478,56.42900085449219,4707,[],[],[]
2026-06-01,55.84924803521442,56.42900023404191,55.65599730227192,55.75262451171875,10514,[],[],[]
2026-06-02,55.94587496325803,57.20199919213932,55.75262423128757,56.139122009277344,8273,[],[],[]
2026-06-03,56.13912306706659,56.912126009513585,56.04249954223633,56.04249954223633,11676,[],[],[]
2026-06-05,56.04249954223633,56.81549879873211,56.04249954223633,56.04249954223633,4524,[],[],[]
2026-06-08,56.04249954223633,56.23575027784808,55.55937454618257,56.04249954223633,5353,[],[],[]
2026-06-09,56.04250076957371,57.58849931642281,55.0762507563052,55.55937576293945,6925,[],[],[]
2026-06-10,55.84924972216287,55.84924972216287,54.30325118382771,54.49650192260742,3980,[],[],[]
2026-06-11,54.10999877970704,54.496500245371124,53.916748046875,53.916748046875,10478,[],[],[]
2026-06-12,53.91674970626829,55.07625045299529,53.91674970626829,54.49650192260742,7131,[],[],[]
2026-06-15,54.4965022227246,56.52562577620797,54.399875009826985,55.55937576293945,5140,[],[],[]
2026-06-16,55.84924986258687,57.588499144074795,55.36612485739849,55.94587707519531,6924,[],[],[]
2026-06-17,56.235749021081894,56.235749021081894,54.10999834876175,54.68974685668945,7595,[],[],[]
2026-06-18,54.59312405656824,54.59312405656824,53.143749081615105,53.530250549316406,10587,[],[],[]
2026-06-19,53.43362532808294,54.4965025608436,50.824749538881136,53.33700180053711,17774,[],[],[]
2026-06-22,53.33700058552413,53.82012558415034,51.69437485300476,51.98424911499024,8424,[],[],[]
2026-06-23,51.984248342148625,52.17749907591632,51.694374084472656,51.694374084472656,2390,[],[],[]
2026-06-24,51.69437374393453,52.1774987321956,50.53487303491773,50.63150024414063,4499,[],[],[]
2026-06-25,50.631502997353,52.177501569475446,50.148377982820826,50.728126525878906,5411,[],[],[]
2026-06-26,51.50112335070495,53.04712553489539,50.53487336781761,51.694374084472656,8437,[],[],[]
2026-06-29,52.17749925093217,54.10999922318892,51.114625740571434,53.14374923706055,8532,[],[],[]
2026-06-30,54.110000868975106,59.327752427149655,54.110000868975106,57.008750915527344,13461,[],[],[]
2026-07-01,57.781747547043715,57.781747547043715,56.042498335879074,56.5256233215332,5542,[],[],[]
2026-07-02,56.52562351226806,58.94124844868977,56.04249852498371,57.97499847412109,6277,[],[],[]
2026-07-03,58.94124848690869,60.39062344970153,58.45812349931108,59.81087493896485,12950,[],[],[]
2026-07-06,60.390623788985,61.83999875992064,60.19737305567001,60.87374877929688,12535,[],[],['shooting_star']
2026-07-07,61.74337523623873,61.83999875992064,59.520997332043144,60.87374877929688,6841,[],[],[]
2026-07-08,61.45349853562837,61.45349853562837,56.042500009127586,58.55474853515625,13552,[],[],[]
2026-07-09,58.84462754955767,59.61762682649125,57.20200178235426,58.458126068115234,6527,[],[],[]
2026-07-10,59.520998366845625,61.067000574292365,58.94124984277262,60.77712631225586,8737,[],[],[]
2026-07-13,61.260253497899896,61.84000204266938,59.90750197883597,60.1973762512207,7125,[],[],[]
2026-07-14,59.42437484616139,60.10075058160063,58.36150132329347,58.94124984741211,6149,[],[],[]
2026-07-15,59.327751320792025,60.68049910571927,58.36150132329347,58.94124984741211,8021,[],[],[]
2026-07-16,58.84462813987454,59.521000210257064,58.361503126200525,59.13450241088867,5561,[],[],[]
2026-07-17,59.13450241088867,59.61762742456268,58.361503126200525,59.13450241088867,5673,[],[],[]
2026-07-20,58.844624772403414,59.03787181805309,57.68512406874968,58.36149978637695,6218,[],[],[]
2026-07-21,58.361502830270126,59.810877863942885,57.9750013469102,59.52099990844727,7681,[],[],[]
2026-07-22,59.71425001829293,60.87375077015276,59.61762649145098,60.68050003051758,8221,[],[],[]
2026-07-23,60.87375124039189,60.87375124039189,59.424376210858746,59.907501220703125,4105,[],[],[]
2026-07-24,59.81087586781737,60.294000862917834,59.13450013748649,59.71424865722656,4148,[],[],[]
2026-07-27,59.90749939245699,60.19737365232702,58.94124940225607,59.71424865722656,2858,[],[],[]
2026-07-28,59.71425095291694,59.71425095291694,58.84462813987454,59.13450241088867,5837,[],[],[]
2026-07-29,58.94124984741211,59.327751320792025,58.458124848662834,58.94124984741211,3167,[],[],[]
2026-07-30,59.13450211103867,60.39062640303146,59.13450211103867,59.52099990844727,6848,[],[],[]
2026-07-31,59.81087631954131,59.81087631954131,58.36150132329347,58.94124984741211,6421,[],[],[]
2026-08-03,58.94125061210957,59.71424988294698,58.94125061210957,59.23112487792969,5019,[],[],[]
2026-08-04,59.231125012180605,61.1636250366299,59.231125012180605,60.68050003051758,15341,[],[],[]
2026-08-05,60.6804980459819,61.83999875992064,59.90749879867312,60.87374877929688,10895,[],[],[]
2026-08-06,60.873750150203705,61.84000015258789,60.873750150203705,61.84000015258789,8659,[],[],[]
2026-08-07,63.400001525878906,63.400001525878906,60.400001525878906,62.5,17359,[],[],[]
2026-08-10,62.5,62.79999923706055,61.20000076293945,61.400001525878906,5888,[],[],[]
2026-08-11,62.0,62.0,60.400001525878906,61.0,7298,[],[],[]
2026-08-12,61.20000076293945,61.20000076293945,59.5,60.59999847412109,9539,[],[],[]
2026-08-13,61.0,61.09999847412109,59.29999923706055,59.400001525878906,7726,[],[],[]
2026-08-14,59.400001525878906,60.29999923706055,58.59999847412109,60.0,8485,[],[],[]
2026-08-17,59.20000076293945,60.09999847412109,58.5,58.5,6715,[],[],[]
2026-08-18,58.59999847412109,61.5,58.09999847412109,60.0,7350,[],[],[]
2026-08-19,61.0,61.0,57.0,58.70000076293945,10480,[],[],[]
2026-08-20,59.70000076293945,60.20000076293945,58.79999923706055,59.0,3715,[],[],[]
2026-08-21,58.59999847412109,61.5,58.0,59.900001525878906,11714,[],[],[]
2026-08-24,60.20000076293945,60.70000076293945,59.5,59.5,5330,[],[],[]
2026-08-25,60.59999847412109,60.79999923706055,59.0,60.70000076293945,5475,[],[],[]
2026-08-26,60.79999923706055,61.5,60.09999847412109,61.0,8172,[],[],[]
2026-08-27,61.0,61.0,60.20000076293945,60.59999847412109,5011,[],[],[]
2026-08-28,58.900001525878906,58.900001525878906,56.0,56.29999923706055,38368,[],[],[]
2026-08-31,56.400001525878906,56.400001525878906,53.0,54.20000076293945,30284,[],[],[]
2026-09-01,54.400001525878906,55.5,53.79999923706055,54.09999847412109,14636,[],[],[]
2026-09-02,53.5,54.0,53.29999923706055,53.79999923706055,9383,[],[],[]
2026-09-03,53.70000076293945,53.70000076293945,51.900001525878906,52.400001525878906,16042,['RSI_OVERSOLD'],['RSI_OVERSOLD'],[]
2026-09-04,53.79999923706055,54.0,53.0,53.400001525878906,13441,[],[],[]
2026-09-07,54.400001525878906,54.79999923706055,53.29999923706055,53.400001525878906,15639,[],[],[]
2026-09-08,53.400001525878906,54.70000076293945,53.400001525878906,54.5,9224,[],[],[]
2026-09-09,54.70000076293945,55.0,53.29999923706055,53.29999923706055,9953,[],[],[]
2026-09-10,53.400001525878906,56.0,53.400001525878906,53.900001525878906,21517,[],[],[]
2026-09-11,54.79999923706055,56.0,54.70000076293945,55.70000076293945,11423,[],[],[]
2026-09-14,56.0,56.79999923706055,54.29999923706055,54.70000076293945,13765,[],[],[]
2026-09-15,55.400001525878906,55.400001525878906,53.0,53.400001525878906,11184,[],[],[]
2026-09-16,53.70000076293945,54.79999923706055,53.29999923706055,54.0,4848,[],[],[]
2026-09-17,54.59999847412109,54.70000076293945,53.5,53.79999923706055,10147,[],[],[]
2026-09-18,54.29999923706055,54.79999923706055,53.5,53.5,15430,[],[],[]
2026-09-21,53.900001525878906,55.900001525878906,53.900001525878906,55.59999847412109,11735,[],[],[]
2026-09-22,55.5,56.0,54.5,55.400001525878906,10274,[],[],[]
2026-09-23,55.400001525878906,56.0,54.29999923706055,55.0,7090,[],[],[]
2026-09-24,55.0,56.400001525878906,54.400001525878906,55.20000076293945,7667,[],[],[]
2026-09-25,55.29999923706055,56.0,55.20000076293945,55.59999847412109,3419,[],[],[]
