Date,Open,High,Low,Close,Volume,signal,bull_patterns,bear_patterns
2016-11-01,2.369260136898766,2.399442109347841,2.2409880698722278,2.339078664779663,62755,[],[],[]
2016-12-01,2.293806216276069,2.474896016905605,1.9618077412240649,2.1881701946258545,200859,[],[],[]
2017-01-01,2.2560790267852897,2.2560790267852897,1.9768986754141502,2.1202616691589355,141779,[],[],[]
2017-02-01,2.1127162471145753,2.1127162471145753,1.9089898677085468,2.044807195663452,132970,[],[],[]
2017-03-01,2.05989834731511,2.2938060762003913,1.8637174766389752,2.203261137008667,234329,[],[],[]
2017-04-01,2.233442415097139,2.565440991904267,2.1655339513985536,2.474895715713501,182177,[],[],[]
2017-05-01,2.4748959848343963,2.4899867997501115,2.2183519842839132,2.2258975505828857,59357,[],[],[]
2017-06-01,2.263624429702759,2.271169662475586,2.1127161498624694,2.233442783355713,35924,[],[],[]
2017-07-01,2.2334426453781706,2.316442122921401,2.03726208675137,2.1127161979675293,28903,[],[],[]
2017-08-01,2.1127161979675293,2.2183516025543213,1.8938992447467338,2.165534019470215,70689,[],[],[]
2017-09-01,2.112715944526901,2.256079196929932,2.074988909425771,2.256079196929932,26873,[],[],[]
2017-10-01,2.2560790700069617,2.2636244134178107,2.0523525671528673,2.180624961853028,61889,[],[],[]
2017-11-01,2.180624961853028,2.19571590423584,1.9089899918830449,1.9768985509872443,75720,[],[],[]
2017-12-01,1.9768983840430168,1.9768983840430168,1.6599912766013774,1.8561720848083498,400159,[],[],[]
2018-01-01,1.8561720848083498,2.0825343595757437,1.8561720848083498,1.871263027191162,90103,[],[],[]
2018-02-01,1.886353611946106,1.9467170275962637,1.765627012919384,1.9240806102752688,57132,[],[],[]
2018-03-01,1.9240806102752688,1.9240806482056885,1.7807179292109798,1.8259905576705935,55025,[],[],[]
2018-04-01,1.8259905576705935,1.8863538939348747,1.6298095267139419,1.7656270265579226,39493,[],[],[]
2018-05-01,1.7656270265579226,1.7882631766896857,1.5241737265660447,1.5241738557815552,51050,[],[],[]
2018-06-01,1.5241738411569492,1.9542624950408938,1.4638104438781738,1.9165351390838625,45244,[],[],[]
2018-07-01,1.9165352750948772,2.074989097317493,1.8486268520355225,1.90144431591034,13411,[],[],[]
2018-08-01,1.90144431591034,2.044807235445073,1.7656269160187437,1.9165351390838625,42041,[],[],[]
2018-09-01,1.924080704807289,1.924080704807289,1.6147188884985944,1.6599912643432615,82836,[],[],[]
2018-10-01,1.6599913036395506,1.7958088714974703,1.4713559384583141,1.5317190885543823,136030,[],[],[]
2018-11-01,1.5317190885543823,1.5468099117279053,1.2299026366685792,1.2902659177780151,64168,[],[],[]
2018-12-01,1.2902658611681275,1.2902658611681275,0.9280860683715396,0.9884492754936218,97353,['RSI_OVERSOLD'],['RSI_OVERSOLD'],[]
2019-01-01,0.9884492754936218,1.101630561258302,0.9733584932309138,1.0261764526367188,117345,[],[],[]
2019-02-01,1.0488126277923584,1.6750822067260742,0.9658130531422454,1.652445912361145,419130,[],[],[]
2019-03-01,1.6599912643432615,1.6599912643432615,1.539264692876579,1.5543553829193115,98505,[],[],[]
2019-04-01,1.5694461421271666,1.742990836526335,1.5241736987727366,1.682627558708191,154628,[],[],[]
2019-05-01,1.682627558708191,1.7580815951506645,1.5468098872252574,1.5468099117279053,28333,[],[],[]
2019-06-01,1.5769916772842407,1.5845370292663574,1.433628797531128,1.5845370292663574,34639,[],[],[]
2019-07-01,1.6071735457307754,1.622264202186022,1.509082913398743,1.5845370292663574,9110,[],[],[]
2019-08-01,1.569446325302124,1.6147187948226929,1.486446738243103,1.6147187948226929,6357,[],[],[]
2019-09-01,1.622264266014099,1.622264272127807,1.486446738243103,1.622264266014099,4011,[],[],[]
2019-10-01,1.622264266014099,1.622264266014099,1.47135591506958,1.47135591506958,11326,[],[],[]
2019-11-01,1.47135591506958,1.8108995788347353,1.47135591506958,1.5468099117279053,71853,[],[],[]
2019-12-01,1.5468099117279053,1.5996277620102481,1.4638104438781738,1.516628384590149,67213,[],[],[]
2020-01-01,1.516628384590149,1.516628384590149,1.388356328010559,1.509082913398743,6130,[],[],[]
2020-02-01,1.4600376755380753,1.6599913105710027,1.305356749212511,1.320447564125061,32389,[],[],[]
2020-03-01,1.320447564125061,1.3393111267405724,1.0412671582229986,1.0563580989837646,38029,[],[],[]
2020-04-01,1.0563580337974563,1.282720563881438,1.0563580337974563,1.1242668628692627,21689,[],[],[]
2020-05-01,1.1242668628692627,1.4109925031661987,1.1242668628692627,1.3959016799926758,26642,[],[],[]
2020-06-01,1.3959016799926758,1.7354453163991606,1.3657200084120273,1.652445912361145,33990,[],[],[]
2020-07-01,1.6524458773098945,1.7278998772009575,1.335538387298584,1.335538387298584,35565,[],[],[]
2020-08-01,1.3581745624542236,2.987984232409917,1.3581745624542236,1.501537561416626,1973673,[],[],[]
2020-09-01,1.5015374686287544,1.6599913988610064,1.3657199698517863,1.5392645597457886,513328,[],[],[]
2020-10-01,1.5769916888739175,1.969353311453092,1.4411741813599037,1.4449468851089478,881021,[],[],[]
2020-11-01,1.4449469501735193,1.7656269690424475,1.4449469501735193,1.516628384590149,232875,[],[],[]
2020-12-01,1.6071734659696177,1.7505361793893208,1.5619008065507474,1.7052637338638306,304323,[],[],[]
2021-01-01,1.7354453802108765,2.074989242465598,1.7052637572383473,1.90144431591034,475834,[],[],[]
2021-02-01,1.9014445693992637,2.4069875250685344,1.7958087921142578,2.135352373123169,380617,[],[],[]
2021-03-01,2.1353520394733927,2.467350914386211,2.007080411650577,2.044807195663452,395107,[],[],[]
2021-04-01,2.1202613954582086,2.1579888250667976,1.8486267614395926,1.9467169046401975,214917,[],[],[]
2021-05-01,2.0146256754100027,2.0146256754100027,1.6826276877816464,1.7731722593307495,227205,[],[],[]
2021-06-01,1.8033542290217788,1.8486266417838781,1.6675367505428467,1.697718381881714,194365,[],[],[]
2021-07-01,1.7128091166928545,1.80335406714677,1.6449004411697388,1.7354453802108765,155470,[],[],[]
2021-08-01,1.7656270187664167,1.9768986475910153,1.69017294185633,1.8788082599639893,311991,[],[],[]
2021-09-01,1.8863536674378725,1.886353764693035,1.7429907956933908,1.788263201713562,103119,[],[],[]
2021-10-01,1.795808789131969,1.8108996872330196,1.6599912883383403,1.7278999090194702,106885,[],[],[]
2021-11-01,1.727899956626576,1.765626962818431,1.3883563361092564,1.509082913398743,220881,[],[],[]
2021-12-01,1.5392645428832459,1.946717108974386,1.4260834104627318,1.886353611946106,767134,[],[],[]
2022-01-01,1.8863536674378725,1.9316261122811724,1.7128092050552368,1.7128092050552368,373633,[],[],[]
2022-02-01,1.7731724184965396,1.7731724184965396,1.5996278524398804,1.6449004411697388,27895,[],[],[]
2022-03-01,1.742990670036917,3.395436592343959,1.5845370017464515,3.07098388671875,1707017,[],[],[]
2022-04-01,2.957802580101639,3.772707299151396,2.663531257801916,2.738985776901245,1266279,[],[],[]
2022-05-01,2.791803661586861,3.1992555771137714,2.716349401605384,3.184164762496948,171808,[],[],[]
2022-06-01,3.184164739752956,3.1917103269041713,2.882348426081392,3.003075122833252,137248,[],[],[]
2022-07-01,3.0106205631818845,3.138892284254333,2.9276210150017654,3.1238014698028564,126477,[],[],[]
2022-08-01,3.123801679362759,3.76516209902057,3.123801679362759,3.742526054382324,302716,[],[],[]
2022-09-01,3.742525734913155,3.742525734913155,2.680572874326205,2.73313307762146,395525,[],[],[]
2022-10-01,2.733133052929614,3.1360950469970703,2.470331829971871,2.8470137119293213,96664,[],[],[]
2022-11-01,2.890814000448289,3.3112957341474454,2.7681733560798856,3.197415590286255,128780,[],[],[]
2022-12-01,3.1974154210734373,3.293775667473835,3.109814824190072,3.1711349487304688,85302,[],[],[]
2023-01-01,3.293775728777925,3.933258644348048,3.1536149839246845,3.775578498840332,284726,[],[],[]
2023-02-01,3.8719382653065164,4.204820559272848,3.8018580027562052,4.064659595489502,88751,[],[],[]
2023-03-01,4.055899409992794,7.533636445989226,3.950779009775038,6.289710521697998,764454,[],[],[]
2023-04-01,6.237150058570885,6.447391292370289,4.782983078864789,5.396185874938965,635218,[],[],[]
2023-05-01,5.185944797018923,6.3422699575990995,4.853063583374023,4.853063583374023,290978,[],[],[]
2023-06-01,4.818023110316531,6.885393308020074,4.7129027063421685,6.745232105255127,268321,[],[],[]
2023-07-01,6.8328328585455,7.078113751258683,5.746587847062515,6.237149715423584,274400,[],[],[]
2023-08-01,6.342270573715169,6.35979105972974,5.5391473264255335,5.9309844970703125,82329,[],[],[]
2023-09-01,5.681633917679392,6.055659770965576,5.343229112477054,5.467904567718506,61078,[],[],[]
2023-10-01,5.521336735080529,6.037848949432373,5.200743207607067,6.037848949432373,68124,[],[],[]
2023-11-01,5.913173497160256,6.732469192087657,5.325418339779098,5.699444770812988,207858,[],[],[]
2023-12-01,5.6994444437708065,6.180335332362868,5.503525978367014,6.126903057098389,91115,[],[],[]
2024-01-01,6.269388729529642,6.696847063781292,5.628201559254794,6.44749641418457,182609,[],[],[]
2024-02-01,6.483118182716911,8.175141091320254,5.913173373947839,7.979223251342774,417239,[],[],[]
2024-03-01,7.979222393294423,10.820040008725544,7.836736415620429,10.419297218322754,286273,[],[],[]
2024-04-01,10.241190123500822,12.912804126739502,9.884973902878109,11.6215238571167,267384,[],[],[]
2024-05-01,11.799631384619508,12.378480911254885,10.196662238273294,11.710577011108398,147553,[],[],[]
2024-06-01,11.710577716467713,12.200373926697,10.241189945040016,10.90909194946289,101218,[],[],['evening_star']
2024-07-01,10.909093169034266,11.755104276554448,9.484231431119971,10.0185546875,148393,[],[],[]
2024-08-01,9.484231605385231,11.13172721862793,8.19295141400562,11.13172721862793,132660,[],[],[]
2024-09-01,10.864566582809866,11.51277900882087,9.934413533796663,10.537907600402832,78139,[],[],[]
2024-10-01,10.537907201505353,11.419934253052757,10.25937198888993,10.95570945739746,71009,[],[],[]
2024-11-01,10.955708914984111,14.715931320144072,10.212949367456199,14.623085975646973,255803,[],[],[]
2024-12-01,14.623086980827422,17.083477526901504,13.13756662751328,16.52640724182129,181293,[],[],[]
2025-01-01,17.17632334391276,22.839868506105514,16.897789079119296,22.1899528503418,237875,[],[],[]
2025-02-01,22.189953418051427,24.046853451983125,20.518743909024533,21.63288307189941,222210,[],[],[]
2025-03-01,21.35434856755199,25.903753625773383,19.31175806935603,24.882457733154297,248306,[],[],[]
2025-04-01,23.95400887755925,25.06814956665039,21.261502429463565,23.025558471679688,149837,[],[],[]
2025-05-01,23.025557226573664,30.63884764909745,22.004263734871888,29.524707794189453,273785,[],[],[]
2025-06-01,29.524707455410425,35.28109968030775,28.039188964501964,32.86712646484375,177238,[],[],[]
2025-07-01,32.867128096714644,45.86542851375659,32.310056027932426,39.36627960205078,395760,[],[],[]
2025-08-01,39.36628080892267,42.99812689492869,35.26812472450073,39.71287536621094,202777,[],[],[]
2025-09-01,39.7128740045733,51.4044992045561,38.263498987093236,46.380001068115234,227833,[],[],[]
2025-10-01,46.28337754027052,49.85849991506684,42.99812530114662,49.278751373291016,191254,[],[],[]
2025-11-01,49.278748802629174,50.63150084484368,43.48124970501648,47.53950119018555,107747,[],[],[]
2025-12-01,48.50574970604822,59.907499844910674,47.4428730877835,57.588497161865234,208506,[],[],[]
2026-01-01,57.58849744548672,62.80625110268589,52.17749925093217,55.84925079345703,289292,[],[],[]
2026-02-01,55.46275146959545,60.68049766572317,51.21124999558176,52.564002990722656,177886,[],[],[]
2026-03-01,51.597751327660006,55.07624937277573,41.54874843099843,47.05637741088867,296443,[],[],[]
2026-04-01,46.95974701506898,63.772501250969945,45.70362545672946,59.907501220703125,436830,[],[],[]
2026-05-01,60.39062514901161,65.51175200826466,54.78637544617057,56.42900085449219,330185,[],[],[]
2026-06-01,55.84924803521442,59.327752427149655,50.148377982820826,57.008750915527344,168028,[],[],[]
2026-07-01,57.781747547043715,61.84000204266938,56.042498335879074,58.94124984741211,160994,[],[],[]
2026-08-01,58.94125061210957,63.400001525878906,53.0,54.20000076293945,228823,[],[],[]
2026-09-01,54.400001525878906,56.79999923706055,51.900001525878906,55.59999847412109,216817,[],[],[]
