Date,Open,High,Low,Close,Volume,signal,bull_patterns,bear_patterns
2025-12-05,48.892248074407654,49.278749545221245,47.5395002984625,49.08549880981445,2719,[],[],[]
2025-12-08,49.278751373291016,49.85849991506684,48.50575208893946,49.278751373291016,5527,[],[],[]
2025-12-09,49.278751373291016,50.051750657642565,49.085500630715295,49.278751373291016,3634,[],[],[]
2025-12-10,49.085499262809755,49.8584985256195,47.829375000000006,48.3125,6243,[],[],[]
2025-12-11,48.892248074407654,49.08549880981445,47.4428730877835,49.08549880981445,6062,[],[],[]
2025-12-12,49.085500630715295,49.278751373291016,48.50575208893946,49.278751373291016,5333,[],[],[]
2025-12-15,49.66525307203227,52.1775016784668,49.47200232862546,52.1775016784668,16092,[],[],[]
2025-12-16,52.75725042574023,56.23575276259375,52.37075262339076,55.07625198364258,16552,[],[],[]
2025-12-17,55.0762506212507,55.0762506212507,53.530252078192596,54.11000061035156,8629,[],[],[]
2025-12-18,54.11000061035156,54.88299988188062,53.916749870981484,54.11000061035156,6413,[],[],[]
2025-12-19,54.30324951253908,54.68974729225201,53.53025026716207,53.916748046875,3431,[],[],[]
2025-12-22,54.88299925807473,55.26950073242188,54.30325073250524,55.26950073242188,7868,[],[],['hanging_man']
2025-12-23,55.849251008049436,59.5210003855981,55.656000264820264,58.74800109863281,14668,[],[],[]
2025-12-29,58.94124984741211,59.907499844910674,57.97499984991355,58.94124984741211,10035,[],[],[]
2025-12-30,59.13449933682508,59.52099711610167,56.62224718474702,57.588497161865234,7961,[],[],['evening_star']
2026-01-02,57.58849744548672,57.78174817905235,55.07624896698708,57.20199966430664,15290,[],[],[]
2026-01-05,57.58849822013309,59.714248946047,56.235750438879684,59.32775115966797,16282,[],[],[]
2026-01-07,59.520999570626415,62.80625110268589,59.520999570626415,60.29400253295898,33997,[],[],['shooting_star']
2026-01-08,60.48724975813585,61.0670019815199,58.94125120101437,59.907501220703125,11131,[],[],[]
2026-01-09,59.907499844910674,59.907499844910674,57.39525132579491,58.94124984741211,22663,[],[],[]
2026-01-12,58.36150224046675,58.94125077369636,53.530252177049015,57.3952522277832,25051,[],[],[]
2026-01-13,57.39525239611483,57.78175019075102,56.42900238059742,57.008750915527344,7600,[],[],[]
2026-01-14,56.42900350674417,56.81550130909365,54.49650343714268,55.07625198364258,17678,[],[],[]
2026-01-15,55.269502727793004,55.269502727793004,54.68975049534173,55.07625198364258,8139,[],[],[]
2026-01-16,55.07624860232413,55.07624860232413,53.916747894558654,54.30324935913086,11865,[],[],[]
2026-01-19,54.30324995760483,54.689747740485465,52.757247768228716,53.14374923706055,11462,[],[],[]
2026-01-20,53.14374923706055,53.33699997147646,52.17749925093217,53.14374923706055,7393,[],[],[]
2026-01-21,53.143751745356866,56.04250184055815,53.143751745356866,55.46275329589844,19724,[],[],[]
2026-01-22,55.849250325749786,57.008751085008,55.849250325749786,56.62224960327149,22608,[],[],[]
2026-01-23,57.78174895587895,57.97499969204267,54.68974823511309,55.65599822998047,11926,[],[],[]
2026-01-26,55.65599852081779,56.235750732338516,54.689748520901155,55.26950073242188,6741,[],[],[]
2026-01-27,55.26949949074814,55.26949949074814,53.14374880149799,53.916748046875,11962,[],[],[]
2026-01-28,53.91675120469141,56.42900350674417,53.53025340234193,55.07625198364258,7535,[],[],[]
2026-01-29,54.11000148298008,57.202002304912064,53.916750740493455,55.84925079345703,13771,[],[],[]
2026-01-30,55.84925079345703,57.008751562425445,54.68975002448861,55.84925079345703,6474,[],[],[]
2026-02-02,55.46275146959545,55.46275146959545,51.21124999558176,55.26950073242188,24683,[],[],[]
2026-02-03,56.04249867285655,57.97499862709299,55.46275016096608,57.588497161865234,10867,[],[],[]
2026-02-04,57.97499984991355,59.71424910822071,57.39525132579491,58.94124984741211,12096,[],[],[]
2026-02-05,58.74799878294716,59.90749951066642,54.88299881451706,56.04249954223633,9606,[],[],[]
2026-02-06,58.36150116479358,59.32775115966797,56.6222482252587,59.32775115966797,13940,[],[],[]
2026-02-09,59.3277499128977,60.68049766572317,57.201999231656366,57.97499847412109,17267,[],[],[]
2026-02-10,56.4290030209169,57.78175084642061,55.84925079345703,55.84925079345703,18455,[],[],[]
2026-02-11,56.042500900009934,57.78175019075102,55.46275236508,57.008750915527344,3798,[],[],[]
2026-02-12,57.588497009913155,58.36149993832902,57.008748499552404,57.97499847412109,2942,[],[],[]
2026-02-13,57.0087490861432,57.0087490861432,55.07624911712139,56.81549835205078,9773,[],[],[]
2026-02-16,57.008749534343856,58.16825026206312,55.84924880662459,56.04249954223633,2441,[],[],[]
2026-02-17,57.58849789299379,57.58849789299379,55.655997914222844,56.42900085449219,2082,[],[],[]
2026-02-18,56.42900101345982,57.395251005567346,55.84924880662459,56.04249954223633,3575,[],[],[]
2026-02-19,56.04250046094258,57.00875046888986,54.110000445048,54.49650192260742,9756,[],[],[]
2026-02-20,54.68975049534173,56.04250201844333,54.68975049534173,55.07625198364258,2846,[],[],[]
2026-02-23,55.07624831927535,57.395249722888444,53.9167476174688,54.68974685668945,5383,[],[],[]
2026-02-24,54.882998025084056,55.655997270461064,53.14374880149799,53.916748046875,7531,[],[],[]
2026-02-25,53.72349775435709,54.10999922318892,52.17749925093217,53.14374923706055,6874,[],[],[]
2026-02-26,53.337000129773045,53.723497913800756,52.75724792480469,52.75724792480469,6320,[],[],[]
2026-02-27,52.564002990722656,52.564002990722656,51.597752962848716,52.564002990722656,7651,[],[],[]
2026-03-02,51.597751327660006,52.17749985163098,48.505750599262,51.98424911499024,18861,['hammer'],['hammer'],[]
2026-03-03,52.17749982629504,53.14374982307828,48.69900131225586,48.69900131225586,15327,"['engulfing', 'RSI_OVERSOLD']",['RSI_OVERSOLD'],[]
2026-03-04,48.69900260145651,53.337001971606824,48.69900260145651,52.95050048828125,9285,[],[],[]
2026-03-05,52.17749940578753,55.07624937277573,51.59775088677037,52.75724792480469,7491,[],[],[]
2026-03-06,52.17749889080341,52.564000356967604,49.85849746572057,50.244998931884766,8424,[],[],[]
2026-03-09,49.278749387282886,50.0517486404814,48.31249939929695,49.47200012207031,18908,[],[],[]
2026-03-10,50.05175001517107,52.564002264505156,49.27875074074185,50.43825149536133,10816,[],[],[]
2026-03-11,50.245000000000005,50.245000000000005,47.63612426280976,48.3125,12386,[],[],[]
2026-03-12,48.505749176909596,48.69899990788356,47.63612273050231,47.73274993896485,6366,[],[],[]
2026-03-13,47.539500746945095,47.539500746945095,45.70362427218789,46.47662353515625,10944,[],[],[]
2026-03-16,45.993497589288474,46.37999905580062,42.99812412464849,44.73737335205078,30753,['RSI_OVERSOLD'],['RSI_OVERSOLD'],[]
2026-03-17,44.73737380635388,46.76650099722142,44.44749954650172,45.80025100708008,30306,[],[],[]
2026-03-18,46.38000094506049,47.05637669603288,44.930625915527344,44.930625915527344,12050,[],[],[]
2026-03-19,44.4474983215332,44.64074905142574,42.611621916480736,44.4474983215332,9814,[],[],[]
2026-03-20,44.44750195708762,46.38000204217838,43.57787544441621,44.83400344848633,7144,[],[],[]
2026-03-23,43.48124835802162,45.22049755515226,41.54874843099843,44.4474983215332,34307,[],[],[]
2026-03-24,44.35087585449219,44.834000847739595,43.48124939226639,44.35087585449219,3701,[],[],[]
2026-03-25,47.05637422353153,49.08549768388038,46.57324923907217,47.73274993896485,22302,[],[],[]
2026-03-26,48.89224869101278,49.08549942885677,46.38000015689482,47.92599868774414,7198,[],[],[]
2026-03-27,48.215875703583286,48.31249922765814,46.95974777490323,48.02262496948242,5016,[],[],[]
2026-03-30,47.34624922279532,47.34624922279532,44.93062426244862,46.18674850463867,12043,[],[],[]
2026-03-31,46.090127376521146,47.24962815495245,45.51037514432981,47.05637741088867,3001,[],[],[]
2026-04-01,46.95974701506898,48.892246952906405,46.86312349255756,47.73274993896485,12100,[],[],[]
2026-04-02,46.379998508098204,47.73274993896485,46.379998508098204,47.73274993896485,5736,[],[],[]
2026-04-07,47.63612550721233,48.21587773392798,45.70362545672946,46.91143798828125,8844,[],[],[]
2026-04-08,47.87768737070763,50.24500063795541,46.91143735843926,48.07093811035156,18412,[],[],[]
2026-04-09,47.53949981118511,48.31249905893789,47.29793731589042,47.491188049316406,5176,[],[],[]
2026-04-10,50.245000299417754,51.88762604639666,50.245000299417754,51.21125030517578,50179,[],[],[]
2026-04-13,51.114627608824044,54.979627694604275,50.824749653629475,54.786376953125,37668,[],[],[]
2026-04-14,55.26949985121381,57.87837554658348,54.303249866702906,56.81549835205078,52147,[],[],[]
2026-04-15,57.008749373742994,57.78174862806114,56.332373643982926,56.42900085449219,13918,[],[],[]
2026-04-16,56.42900242050565,57.20200169627601,54.689749442583214,55.1728744506836,20973,[],[],[]
2026-04-17,55.26949985121381,58.941249055164995,55.26949985121381,56.81549835205078,36344,[],[],[]
2026-04-20,57.008751161636845,60.10075196183114,56.81550042050883,59.907501220703125,25263,[],[],[]
2026-04-21,60.87375147892878,62.806251525878906,60.390626467191254,62.806251525878906,40483,[],[],[]
2026-04-22,62.709627704500974,63.772501250969945,61.356876203584726,61.74337768554688,20770,[],[],[]
2026-04-23,61.743375080647155,61.83999860408558,58.45812368042465,61.260250091552734,17951,[],[],[]
2026-04-24,61.26025254992338,61.3568760772393,59.520999570626415,60.29400253295898,9694,[],[],[]
2026-04-27,60.29400130907695,62.999496878518016,60.29400130907695,62.61300277709961,13995,[],[],[]
2026-04-28,62.61300404805405,62.80625110268589,60.19737531969176,60.29400253295898,9085,[],[],[]
2026-04-29,60.29400306428499,60.390626592452385,57.00875150327505,57.68512725830078,14643,[],[],[]
2026-04-30,57.68512691260924,59.907501220703125,56.525626151792466,59.907501220703125,23449,[],[],[]
2026-05-04,60.39062514901161,62.419748679637905,60.004123673677434,61.84000015258789,13949,[],[],[]
2026-05-05,62.41975021362305,62.41975021362305,61.646750929909246,62.41975021362305,12819,[],[],[]
2026-05-06,62.70962557411192,65.51175200826466,62.03324616068064,63.772499084472656,34293,[],[],[]
2026-05-07,64.06237671826413,64.73874875651154,63.772498775071064,64.54550170898438,9556,[],[],[]
2026-05-08,64.73874857138718,64.73874857138718,61.45349716950347,63.09612655639648,11080,[],[],[]
2026-05-11,63.096126235712184,63.096126235712184,60.58387409234865,61.64674758911133,10430,[],[],[]
2026-05-12,61.74337484931941,61.74337484931941,57.97499847412109,57.97499847412109,23677,[],[],[]
2026-05-13,58.26487579920779,59.71425083742665,57.39525298784728,57.68512725830078,11758,[],[],[]
2026-05-14,57.97499898538801,60.487247467041016,57.97499898538801,60.487247467041016,13530,[],[],[]
2026-05-15,60.6805004531266,63.2893762414929,57.97500113724541,61.74337768554688,14605,[],[],[]
2026-05-18,61.83999954199527,62.80624953483895,59.90749955630792,61.16362380981445,10423,[],[],[]
2026-05-19,61.06700012689857,63.77249936267009,59.90749940129615,61.55012512207031,20862,[],[],[]
2026-05-20,62.22650279264092,62.51637337564031,56.71887693877233,58.071624755859375,56924,[],[],[]
2026-05-21,58.16825058660351,59.42437484616139,58.16825058660351,58.94124984741211,9223,[],[],[]
2026-05-22,58.94124824980385,58.94124824980385,55.269499096022685,56.5256233215332,32432,[],[],[]
2026-05-25,56.525624699741606,56.718875435905325,54.78637544617057,55.65599822998047,17822,[],[],[]
2026-05-26,55.75262737500933,57.588500217370175,55.75262737500933,57.29862594604492,8238,[],[],[]
2026-05-27,57.29862395844526,57.58849821971523,55.07624970744054,55.65599822998047,9504,[],[],[]
2026-05-28,55.559373778776255,56.04249876815692,55.17287231289125,55.75262451171875,4353,[],[],[]
2026-05-29,55.75262512473211,57.008749373742994,55.55937438966478,56.42900085449219,4707,[],[],[]
2026-06-01,55.84924803521442,56.42900023404191,55.65599730227192,55.75262451171875,10514,[],[],[]
2026-06-02,55.94587496325803,57.20199919213932,55.75262423128757,56.139122009277344,8273,[],[],[]
2026-06-03,56.13912306706659,56.912126009513585,56.04249954223633,56.04249954223633,11676,[],[],[]
2026-06-05,56.04249954223633,56.81549879873211,56.04249954223633,56.04249954223633,4524,[],[],[]
2026-06-08,56.04249954223633,56.23575027784808,55.55937454618257,56.04249954223633,5353,[],[],[]
2026-06-09,56.04250076957371,57.58849931642281,55.0762507563052,55.55937576293945,6925,[],[],[]
2026-06-10,55.84924972216287,55.84924972216287,54.30325118382771,54.49650192260742,3980,[],[],[]
2026-06-11,54.10999877970704,54.496500245371124,53.916748046875,53.916748046875,10478,[],[],[]
2026-06-12,53.91674970626829,55.07625045299529,53.91674970626829,54.49650192260742,7131,[],[],[]
2026-06-15,54.4965022227246,56.52562577620797,54.399875009826985,55.55937576293945,5140,[],[],[]
2026-06-16,55.84924986258687,57.588499144074795,55.36612485739849,55.94587707519531,6924,[],[],[]
2026-06-17,56.235749021081894,56.235749021081894,54.10999834876175,54.68974685668945,7595,[],[],[]
2026-06-18,54.59312405656824,54.59312405656824,53.143749081615105,53.530250549316406,10587,[],[],[]
2026-06-19,53.43362532808294,54.4965025608436,50.824749538881136,53.33700180053711,17774,[],[],[]
2026-06-22,53.33700058552413,53.82012558415034,51.69437485300476,51.98424911499024,8424,[],[],[]
2026-06-23,51.984248342148625,52.17749907591632,51.694374084472656,51.694374084472656,2390,[],[],[]
2026-06-24,51.69437374393453,52.1774987321956,50.53487303491773,50.63150024414063,4499,[],[],[]
2026-06-25,50.631502997353,52.177501569475446,50.148377982820826,50.728126525878906,5411,[],[],[]
2026-06-26,51.50112335070495,53.04712553489539,50.53487336781761,51.694374084472656,8437,[],[],[]
2026-06-29,52.17749925093217,54.10999922318892,51.114625740571434,53.14374923706055,8532,[],[],[]
2026-06-30,54.110000868975106,59.327752427149655,54.110000868975106,57.008750915527344,13461,[],[],[]
2026-07-01,57.781747547043715,57.781747547043715,56.042498335879074,56.5256233215332,5542,[],[],[]
2026-07-02,56.52562351226806,58.94124844868977,56.04249852498371,57.97499847412109,6277,[],[],[]
2026-07-03,58.94124848690869,60.39062344970153,58.45812349931108,59.81087493896485,12950,[],[],[]
2026-07-06,60.390623788985,61.83999875992064,60.19737305567001,60.87374877929688,12535,[],[],['shooting_star']
2026-07-07,61.74337523623873,61.83999875992064,59.520997332043144,60.87374877929688,6841,[],[],[]
2026-07-08,61.45349853562837,61.45349853562837,56.042500009127586,58.55474853515625,13552,[],[],[]
2026-07-09,58.84462754955767,59.61762682649125,57.20200178235426,58.458126068115234,6527,[],[],[]
2026-07-10,59.520998366845625,61.067000574292365,58.94124984277262,60.77712631225586,8737,[],[],[]
2026-07-13,61.260253497899896,61.84000204266938,59.90750197883597,60.1973762512207,7125,[],[],[]
2026-07-14,59.42437484616139,60.10075058160063,58.36150132329347,58.94124984741211,6149,[],[],[]
2026-07-15,59.327751320792025,60.68049910571927,58.36150132329347,58.94124984741211,8021,[],[],[]
2026-07-16,58.84462813987454,59.521000210257064,58.361503126200525,59.13450241088867,5561,[],[],[]
2026-07-17,59.13450241088867,59.61762742456268,58.361503126200525,59.13450241088867,5673,[],[],[]
2026-07-20,58.844624772403414,59.03787181805309,57.68512406874968,58.36149978637695,6218,[],[],[]
2026-07-21,58.361502830270126,59.810877863942885,57.9750013469102,59.52099990844727,7681,[],[],[]
2026-07-22,59.71425001829293,60.87375077015276,59.61762649145098,60.68050003051758,8221,[],[],[]
2026-07-23,60.87375124039189,60.87375124039189,59.424376210858746,59.907501220703125,4105,[],[],[]
2026-07-24,59.81087586781737,60.294000862917834,59.13450013748649,59.71424865722656,4148,[],[],[]
2026-07-27,59.90749939245699,60.19737365232702,58.94124940225607,59.71424865722656,2858,[],[],[]
2026-07-28,59.71425095291694,59.71425095291694,58.84462813987454,59.13450241088867,5837,[],[],[]
2026-07-29,58.94124984741211,59.327751320792025,58.458124848662834,58.94124984741211,3167,[],[],[]
2026-07-30,59.13450211103867,60.39062640303146,59.13450211103867,59.52099990844727,6848,[],[],[]
2026-07-31,59.81087631954131,59.81087631954131,58.36150132329347,58.94124984741211,6421,[],[],[]
2026-08-03,58.94125061210957,59.71424988294698,58.94125061210957,59.23112487792969,5019,[],[],[]
2026-08-04,59.231125012180605,61.1636250366299,59.231125012180605,60.68050003051758,15341,[],[],[]
2026-08-05,60.6804980459819,61.83999875992064,59.90749879867312,60.87374877929688,10895,[],[],[]
2026-08-06,60.873750150203705,61.84000015258789,60.873750150203705,61.84000015258789,8659,[],[],[]
2026-08-07,63.400001525878906,63.400001525878906,60.400001525878906,62.5,17359,[],[],[]
2026-08-10,62.5,62.79999923706055,61.20000076293945,61.400001525878906,5888,[],[],[]
2026-08-11,62.0,62.0,60.400001525878906,61.0,7298,[],[],[]
2026-08-12,61.20000076293945,61.20000076293945,59.5,60.59999847412109,9539,[],[],[]
2026-08-13,61.0,61.09999847412109,59.29999923706055,59.400001525878906,7726,[],[],[]
2026-08-14,59.400001525878906,60.29999923706055,58.59999847412109,60.0,8485,[],[],[]
2026-08-17,59.20000076293945,60.09999847412109,58.5,58.5,6715,[],[],[]
2026-08-18,58.59999847412109,61.5,58.09999847412109,60.0,7350,[],[],[]
2026-08-19,61.0,61.0,57.0,58.70000076293945,10480,[],[],[]
2026-08-20,59.70000076293945,60.20000076293945,58.79999923706055,59.0,3715,[],[],[]
2026-08-21,58.59999847412109,61.5,58.0,59.900001525878906,11714,[],[],[]
2026-08-24,60.20000076293945,60.70000076293945,59.5,59.5,5330,[],[],[]
2026-08-25,60.59999847412109,60.79999923706055,59.0,60.70000076293945,5475,[],[],[]
2026-08-26,60.79999923706055,61.5,60.09999847412109,61.0,8172,[],[],[]
2026-08-27,61.0,61.0,60.20000076293945,60.59999847412109,5011,[],[],[]
2026-08-28,58.900001525878906,58.900001525878906,56.0,56.29999923706055,38368,[],[],[]
2026-08-31,56.400001525878906,56.400001525878906,53.0,54.20000076293945,30284,[],[],[]
2026-09-01,54.400001525878906,55.5,53.79999923706055,54.09999847412109,14636,[],[],[]
2026-09-02,53.5,54.0,53.29999923706055,53.79999923706055,9383,[],[],[]
2026-09-03,53.70000076293945,53.70000076293945,51.900001525878906,52.400001525878906,16042,['RSI_OVERSOLD'],['RSI_OVERSOLD'],[]
2026-09-04,53.79999923706055,54.0,53.0,53.400001525878906,13441,[],[],[]
2026-09-07,54.400001525878906,54.79999923706055,53.29999923706055,53.400001525878906,15639,[],[],[]
2026-09-08,53.400001525878906,54.70000076293945,53.400001525878906,54.5,9224,[],[],[]
2026-09-09,54.70000076293945,55.0,53.29999923706055,53.29999923706055,9953,[],[],[]
2026-09-10,53.400001525878906,56.0,53.400001525878906,53.900001525878906,21517,[],[],[]
2026-09-11,54.79999923706055,56.0,54.70000076293945,55.70000076293945,11423,[],[],[]
2026-09-14,56.0,56.79999923706055,54.29999923706055,54.70000076293945,13765,[],[],[]
2026-09-15,55.400001525878906,55.400001525878906,53.0,53.400001525878906,11184,[],[],[]
2026-09-16,53.70000076293945,54.79999923706055,53.29999923706055,54.0,4848,[],[],[]
2026-09-17,54.59999847412109,54.70000076293945,53.5,53.79999923706055,10147,[],[],[]
2026-09-18,54.29999923706055,54.79999923706055,53.5,53.5,15430,[],[],[]
2026-09-21,53.900001525878906,55.900001525878906,53.900001525878906,55.59999847412109,11735,[],[],[]
2026-09-22,55.5,56.0,54.5,55.400001525878906,10274,[],[],[]
2026-09-23,55.400001525878906,56.0,54.29999923706055,55.0,7090,[],[],[]
2026-09-24,55.0,56.400001525878906,54.400001525878906,55.20000076293945,7667,[],[],[]
