Date,Open,High,Low,Close,Volume,signal,bull_patterns,bear_patterns
2017-03-05,2.0221709755512762,2.05989834731511,1.999534628382243,2.02971625328064,24237,[],[],[]
2017-03-12,2.0146254408314412,2.0749890166477947,1.9768987555622517,2.037262201309204,28462,[],[],[]
2017-03-19,2.022171307599886,2.022171307599886,1.9316262155144588,1.9618078470230107,21572,[],[],[]
2017-03-26,1.9316261450561705,2.1730797199989347,1.8637174766389752,2.1127161979675293,127092,[],[],[]
2017-04-02,2.1127162028699877,2.2938060762003913,2.074989163155593,2.203261137008667,42727,[],[],[]
2017-04-09,2.233442415097139,2.565440991904267,2.1655339513985536,2.474895715713501,79459,[],[],[]
2017-04-16,2.5503505044412473,2.5503505044412473,2.271169908266436,2.346623659133911,33999,[],[],[]
2017-04-23,2.339078664779663,2.4145325789033856,2.240988359688542,2.376805543899536,36769,[],[],[]
2017-04-30,2.3541692234717666,2.474895715713501,2.2636246314415565,2.474895715713501,31950,[],[],[]
2017-05-07,2.4748959848343963,2.4899867997501115,2.2258975435206776,2.339078664779663,14121,[],[],[]
2017-05-14,2.3466237323664587,2.3541691393555464,2.263624429702759,2.263624429702759,32956,[],[],[]
2017-05-21,2.263624429702759,2.2711698372725664,2.2183519842839132,2.263624429702759,6072,[],[],[]
2017-05-28,2.2636244134178107,2.278715372085572,2.233442783355713,2.263624429702759,3682,[],[],[]
2017-06-04,2.263624429702759,2.263624429702759,2.2258975505828857,2.263624429702759,4100,[],[],[]
2017-06-11,2.263624591122246,2.271169662475586,2.1881701855956264,2.263624429702759,5640,[],[],[]
2017-06-18,2.2560791336814043,2.256079196929932,2.1881703382625664,2.233442783355713,2070,[],[],[]
2017-06-25,2.1806249307470416,2.233442783355713,2.1127161498624694,2.135352373123169,6560,[],[],[]
2017-07-02,2.135352373123169,2.240988254547119,2.1127161498624694,2.233442783355713,20080,[],[],[]
2017-07-09,2.2334426453781706,2.316442122921401,2.2334426453781706,2.256079196929932,10560,[],[],[]
2017-07-16,2.256079022132951,2.2636245008578086,2.03726208675137,2.1579885482788086,15860,[],[],[]
2017-07-23,2.1881701946258545,2.19571590423584,2.135352165587579,2.19571590423584,945,[],[],[]
2017-07-30,2.19571590423584,2.19571590423584,2.1579885482788086,2.1579885482788086,420,[],[],[]
2017-08-06,2.1127161979675293,2.1127161979675293,2.0900800228118896,2.0900800228118896,1617,[],[],[]
2017-08-13,2.0900800228118896,2.1881701946258545,2.037262118713827,2.1881701946258545,23434,[],[],[]
2017-08-20,2.180625014980909,2.180625014980909,1.9618077412240649,2.097625255584717,10423,[],[],[]
2017-08-27,2.0825343595757437,2.19571590423584,1.8938992447467338,2.19571590423584,22351,[],[],[]
2017-09-03,2.0976249223151036,2.2183516025543213,2.074988909425771,2.1881701946258545,18669,[],[],[]
2017-09-10,2.1881701946258545,2.1881703694761856,2.0749890752321143,2.1881701946258545,2115,[],[],[]
2017-09-17,2.1881701946258545,2.1881701946258545,2.097625349207297,2.173079252243042,7194,[],[],[]
2017-09-24,2.173079680055683,2.19571590423584,2.1051705375066754,2.19571590423584,3098,[],[],[]
2017-10-01,2.19571590423584,2.256079196929932,2.1504429796280307,2.256079196929932,9779,[],[],[]
2017-10-08,2.2560790700069617,2.2636244134178107,2.0825345123220638,2.203261137008667,34513,[],[],[]
2017-10-15,2.2108068466186523,2.233442853816246,2.1051709478481673,2.135352373123169,9661,[],[],[]
2017-10-22,2.2183522551096346,2.2183522551096346,2.0523525671528673,2.173079252243042,10867,[],[],[]
2017-10-29,2.1730797199989347,2.1730797199989347,2.067443825319797,2.1127161979675293,3233,[],[],[]
2017-11-05,2.097625458114773,2.180624961853028,2.097625458114773,2.180624961853028,3615,[],[],[]
2017-11-12,2.180624961853028,2.19571590423584,2.0749887868766472,2.173079252243042,11211,[],[],[]
2017-11-19,2.142897446047986,2.1881701946258545,2.0523525671528673,2.173079252243042,14213,[],[],[]
2017-11-26,2.173079425590357,2.173079425590357,1.969352960586548,1.969352960586548,43789,['engulfing'],[],[]
2017-12-03,1.99953503564211,2.0221712899368285,1.90144431591034,1.90144431591034,16747,[],[],[]
2017-12-10,1.8938992377012407,1.901444645823687,1.6599912766013774,1.7958087921142578,26853,['RSI_OVERSOLD'],['RSI_OVERSOLD'],[]
2017-12-17,1.7354453802108765,1.8033542290217788,1.690172934268081,1.697718381881714,152614,['inverted_hammer'],['inverted_hammer'],[]
2017-12-24,1.6977183218710292,1.9165351295368755,1.6675366915990173,1.90144431591034,205230,['engulfing'],[],[]
2017-12-31,1.90144431591034,1.90144431591034,1.8108995926990397,1.8561720848083498,5222,[],[],[]
2018-01-07,1.8561720848083498,2.0146255493164062,1.8561720848083498,2.0146255493164062,8386,[],[],[]
2018-01-14,2.0825343595757437,2.0825343595757437,1.8561720848083498,1.886353611946106,64132,[],[],[]
2018-01-21,1.886353611946106,1.9240806482056885,1.8637174367904663,1.871263027191162,17120,[],[],[]
2018-01-28,1.8863537154724352,1.8863537154724352,1.8561720848083498,1.8788082599639893,465,[],[],[]
2018-02-04,1.8788082599639893,1.9240806482056885,1.8335357611826908,1.886353611946106,6450,[],[],[]
2018-02-11,1.848626630068456,1.8788082599639893,1.765627012919384,1.8108996152877808,15149,[],[],[]
2018-02-18,1.8108996234256023,1.9467170275962637,1.8033542158236915,1.886353611946106,11695,[],[],[]
2018-02-25,1.8788083934799586,1.9089900255203247,1.8561720848083498,1.8561720848083498,21473,[],[],[]
2018-03-04,1.8335357250372306,1.9240806102752688,1.8335357250372306,1.9240806102752688,2365,[],[],[]
2018-03-11,1.9240806102752688,1.9240806482056885,1.886353611946106,1.886353611946106,47675,[],[],[]
2018-03-18,1.9240806102752688,1.9240806102752688,1.871263027191162,1.871263027191162,160,[],[],[]
2018-03-25,1.8863538939348747,1.8863538939348747,1.818445086479187,1.8259905576705935,480,[],[],[]
2018-04-01,1.7807179292109798,1.8259905576705935,1.7807179292109798,1.8259905576705935,6710,[],[],[]
2018-04-08,1.8259905576705935,1.8259905576705935,1.7128091264965488,1.788263201713562,9823,[],[],[]
2018-04-15,1.7882630732904135,1.8863538939348747,1.7731722593307495,1.8259905576705935,6594,[],[],[]
2018-04-22,1.8259905576705935,1.8259905576705935,1.7807177305221558,1.7807177305221558,3885,[],[],[]
2018-04-29,1.7807177305221558,1.7807177305221558,1.6298095267139419,1.7731722593307495,14776,[],[],[]
2018-05-06,1.7128091724877827,1.7731724342822281,1.7128091724877827,1.7354453802108765,4515,[],[],[]
2018-05-13,1.7203545726203648,1.7505362033843994,1.6750820654479537,1.7505362033843994,20165,[],[],[]
2018-05-20,1.7505362033843994,1.7882631766896857,1.6599912506157233,1.7354453802108765,12053,[],[],[]
2018-05-27,1.7354453642141574,1.7354453642141574,1.6147188811670214,1.667536735534668,9512,[],[],[]
2018-06-03,1.6147187948226929,1.6449004242760084,1.4939922094345093,1.4939922094345093,9360,[],[],[]
2018-06-10,1.4939920728411549,1.6298096179962158,1.4638104438781738,1.6147187948226929,3313,[],[],[]
2018-06-17,1.622264266014099,1.622264304208051,1.5468099914070075,1.5845370292663574,2137,[],[],[]
2018-06-24,1.5845370292663574,1.90144431591034,1.5241737865347464,1.90144431591034,38868,[],[],[]
2018-07-01,1.8108997412748695,1.9542624950408938,1.8108997412748695,1.9165351390838625,786,[],[],[]
2018-07-08,1.9165352750948772,2.0749890166477947,1.9165352750948772,2.067443609237671,5010,[],[],[]
2018-07-15,2.0674436727870216,2.074989097317493,1.9618078470230107,1.9618078470230107,3860,[],[],[]
2018-07-22,1.9618078470230107,1.9618078470230107,1.8712628307768961,1.9467169046401975,3671,[],[],[]
2018-07-29,1.9467169046401975,1.9467169046401975,1.8788083934799586,1.9089900255203247,650,[],[],[]
2018-08-05,1.863717668795263,1.9089900255203247,1.8486268520355225,1.886353611946106,504,[],[],[]
2018-08-12,1.886353611946106,1.9240806102752688,1.8259905305124715,1.9089900255203247,2511,[],[],[]
2018-08-19,1.9089899384704994,1.9089899384704994,1.8561720848083498,1.8637174367904663,302,[],[],[]
2018-08-26,1.8637174367904663,1.901444426449939,1.7656269160187437,1.886353611946106,22559,[],[],[]
2018-09-02,1.886353768251631,2.044807235445073,1.84108107057532,1.9165351390838625,16385,[],[],[]
2018-09-09,1.924080704807289,1.924080704807289,1.8108996860639994,1.83353590965271,2528,[],[],[]
2018-09-16,1.8335357611822576,1.8335357611822576,1.6147188884985944,1.682627558708191,25056,[],[],[]
2018-09-23,1.6826274867788014,1.6901729106903076,1.6298096179962158,1.6599912643432615,48992,[],[],[]
2018-09-30,1.6599912476059546,1.7128091166928545,1.6298096179962158,1.6599912643432615,6260,[],[],[]
2018-10-07,1.6599913036395506,1.7958088714974703,1.6147189423060524,1.6750822067260742,26637,[],[],[]
2018-10-14,1.6750822067260742,1.6750822067260742,1.4789012839142406,1.509082913398743,57712,['engulfing'],[],[]
2018-10-21,1.5166282915469982,1.6599912643432615,1.5015376317725282,1.6599912643432615,14724,[],[],[]
2018-10-28,1.5996278018522505,1.5996278018522505,1.4789012839142406,1.5241738557815552,31933,[],[],[]
2018-11-04,1.5392646717875735,1.5468099117279053,1.4713559384583141,1.5468099117279053,5116,[],[],[]
2018-11-11,1.5317190885543823,1.5317190885543823,1.4638104438781738,1.4638104438781738,7785,[],[],[]
2018-11-18,1.4638104438781738,1.4638104438781738,1.388356328010559,1.3959016799926758,9038,[],[],[]
2018-11-25,1.3959016799926758,1.3959016799926758,1.2299026366685792,1.2600841522216797,42693,['RSI_OVERSOLD'],['RSI_OVERSOLD'],[]
2018-12-02,1.2978113811667094,1.2978113811667094,1.275175103058704,1.2902659177780151,4560,[],[],[]
2018-12-09,1.2902658611681275,1.2902658611681275,1.1016307667045768,1.1393576860427856,35214,['RSI_OVERSOLD'],['RSI_OVERSOLD'],[]
2018-12-16,1.13181219834335,1.13181219834335,1.0110856294631958,1.0110856294631958,18009,[],[],[]
2018-12-23,1.0488126277923584,1.0488126277923584,0.9280860683715396,0.9884492754936218,44010,[],[],[]
2018-12-30,0.9884492754936218,0.9884492754936218,0.9582676456917866,0.9884492754936218,120,[],[],[]
2019-01-06,0.9884492754936218,1.078994359289283,0.9733584932309138,1.0639034509658811,13891,[],[],[]
2019-01-13,1.0488126682703331,1.101630561258302,1.0035401907370016,1.0639034509658811,74695,[],[],[]
2019-01-20,1.0412672831330243,1.101630561258302,1.018631052193322,1.0412672758102417,18953,[],[],[]
2019-01-27,1.0488126277923584,1.071448858494491,1.018631100654602,1.0639034509658811,2400,[],[],[]
2019-02-03,1.071448914834505,1.071448914834505,1.0261764526367188,1.0488126277923584,7426,[],[],[]
2019-02-10,1.0337218046188354,1.0563580324961028,0.9658130531422454,0.9884492754936218,26102,[],[],[]
2019-02-17,0.980903900934382,1.5996278278827776,0.980903900934382,1.5619007349014282,305556,['engulfing'],[],[]
2019-02-24,1.5619009171957376,1.6071733236312866,1.5619007349014282,1.6071733236312866,30546,[],[],[]
2019-03-03,1.6147189423060524,1.6750822067260742,1.6147189423060524,1.6599912643432615,57140,[],[],[]
2019-03-10,1.652445912361145,1.652445912361145,1.5769915666316505,1.592082381248474,24285,[],[],[]
2019-03-17,1.5996277885568857,1.629809673674302,1.5619007520148271,1.622264266014099,27882,[],[],[]
2019-03-24,1.622264266014099,1.622264266014099,1.539264692876579,1.569446325302124,24088,[],[],[]
2019-03-31,1.5845370851220901,1.5845371415148968,1.539264692876579,1.5543553829193115,22016,[],[],[]
2019-04-07,1.5694461421271666,1.5769916772842407,1.5392645132242135,1.569446325302124,8220,[],[],[]
2019-04-14,1.5694461421271666,1.742990732192993,1.5241736987727366,1.742990732192993,104302,[],[],[]
2019-04-21,1.742990732192993,1.742990732192993,1.7203545570373535,1.7203545570373535,27432,[],[],[]
2019-04-28,1.7203545570373535,1.742990836526335,1.7128092050552368,1.7128092050552368,7074,[],[],[]
2019-05-05,1.7203545977135222,1.7203545977135222,1.682627558708191,1.7052637338638306,7750,[],[],[]
2019-05-12,1.6750821583775632,1.7354453802108765,1.5468098872252574,1.7354453802108765,15206,[],[],[]
2019-05-19,1.758081555366516,1.7580815951506645,1.6599912643432615,1.6599912643432615,5782,[],[],[]
2019-05-26,1.6599912643432615,1.6599912643432615,1.6298096179962158,1.6449004411697388,3800,[],[],[]
2019-06-02,1.6449004411697388,1.6449004697380243,1.5468099117279053,1.5468099117279053,3395,[],[],[]
2019-06-09,1.5769916772842407,1.5769916772842407,1.5468099117279053,1.569446325302124,789,[],[],[]
2019-06-16,1.569446325302124,1.5769916772842407,1.509082913398743,1.5317190885543823,5218,[],[],[]
2019-06-23,1.5317192637845642,1.5468100018194149,1.433628797531128,1.433628797531128,18162,[],[],[]
2019-06-30,1.4562650178567913,1.5845370292663574,1.4562650178567913,1.5845370292663574,10470,[],[],[]
2019-07-07,1.6071735457307754,1.6071735457307754,1.5317190973615216,1.5845370292663574,3306,[],[],[]
2019-07-14,1.6222641541287623,1.6222641541287623,1.5317190885543823,1.5317190885543823,1565,[],[],[]
2019-07-21,1.622264202186022,1.622264202186022,1.5619007349014282,1.6147187948226929,2138,[],[],[]
2019-07-28,1.6147188394505443,1.6147188394505443,1.509082913398743,1.5845370292663574,2086,[],[],[]
2019-08-04,1.5845370292663574,1.5845370292663574,1.569446325302124,1.569446325302124,25,[],[],[]
2019-08-11,1.5694463037996094,1.569446325302124,1.5241738557815552,1.5241738557815552,411,[],[],[]
2019-08-18,1.5241736987727366,1.6147187653782953,1.5241736901783298,1.5468099117279053,5190,[],[],[]
2019-08-25,1.5468099991190196,1.5468099991190196,1.486446738243103,1.516628384590149,648,[],[],[]
2019-09-01,1.5166282829951379,1.6147187948226929,1.5166282829951379,1.6147187948226929,98,[],[],[]
2019-09-08,1.622264266014099,1.622264266014099,1.509082913398743,1.509082913398743,1155,[],[],[]
2019-09-15,1.622264266014099,1.622264272127807,1.5090829769015097,1.516628384590149,701,[],[],[]
2019-09-22,1.516628384590149,1.622264266014099,1.486446738243103,1.5468099117279053,2153,[],[],[]
2019-09-29,1.622264266014099,1.622264266014099,1.622264266014099,1.622264266014099,2,[],[],[]
2019-10-06,1.622264266014099,1.622264266014099,1.4826739506707747,1.509082913398743,183,[],[],[]
2019-10-13,1.5392646717875735,1.5392646717875735,1.509082913398743,1.509082913398743,183,[],[],[]
2019-10-20,1.509082913398743,1.5468099671995732,1.509082913398743,1.5392645597457886,117,[],[],[]
2019-10-27,1.4826740026474,1.5392645597457886,1.4826740026474,1.5392645597457886,3092,[],[],[]
2019-11-03,1.5392645597457886,1.5845370044684988,1.47135591506958,1.47135591506958,7751,[],[],[]
2019-11-10,1.5317191604375784,1.7354453802108765,1.5241737529436674,1.7354453802108765,36356,[],[],[]
2019-11-17,1.7354453802108765,1.8108995788347353,1.7354453247768775,1.7505362033843994,11454,[],[],[]
2019-11-24,1.742990732192993,1.7505362033843994,1.5769915943056285,1.6449004411697388,4864,[],[],[]
2019-12-01,1.6373550790036524,1.6373550790036524,1.501537561416626,1.5468099117279053,19179,[],[],[]
2019-12-08,1.5468099117279053,1.569446325302124,1.4902194738388062,1.501537561416626,17748,[],[],[]
2019-12-15,1.569446325302124,1.5996277620102481,1.4977647650371584,1.5468099117279053,36749,[],[],[]
2019-12-22,1.5468099117279053,1.5468099659528811,1.4638104438781738,1.4638104438781738,12713,[],[],[]
2019-12-29,1.4638104438781738,1.4638104438781738,1.4638104438781738,1.4638104438781738,0,[],[],[]
2020-01-05,1.516628384590149,1.516628384590149,1.4411742687225342,1.486446738243103,1108,[],[],[]
2020-01-12,1.486446738243103,1.4902194738388062,1.486446738243103,1.4902194738388062,24,[],[],[]
2020-01-19,1.4902194738388062,1.4902194738388062,1.456264853477478,1.456264853477478,674,[],[],[]
2020-01-26,1.4336288367279515,1.4562650602148348,1.4260834288989905,1.456264853477478,3074,[],[],[]
2020-02-02,1.509082913398743,1.5090829472430802,1.388356328010559,1.509082913398743,1253,[],[],[]
2020-02-09,1.4600376755380753,1.509082913398743,1.3506292084738392,1.403447151184082,1821,[],[],[]
2020-02-16,1.403447151184082,1.6599913105710027,1.3959017663629352,1.4260834455490112,19014,[],[],[]
2020-02-23,1.4260834455490112,1.4751285546573183,1.4109925031661987,1.418537974357605,1071,[],[],[]
2020-03-01,1.414765238761902,1.4185380270458188,1.305356749212511,1.320447564125061,10483,[],[],[]
2020-03-08,1.320447564125061,1.320447564125061,1.320447564125061,1.320447564125061,240,[],[],[]
2020-03-15,1.3393111267405724,1.3393111267405724,1.0412672758102417,1.0412672758102417,24014,"['engulfing', 'RSI_OVERSOLD']",['RSI_OVERSOLD'],[]
2020-03-22,1.1091759759640876,1.1318122148513794,1.0412671582229986,1.1318122148513794,11414,[],[],[]
2020-03-29,1.09785795211792,1.1318122148513794,1.0827668328858828,1.1318122148513794,2272,[],[],[]
2020-04-05,1.1318122681858245,1.1318122681858245,1.0563580337974563,1.1016305685043335,155,[],[],[]
2020-04-12,1.0940852983856602,1.207266330718994,1.0789943916234306,1.207266330718994,2582,[],[],[]
2020-04-19,1.207266330718994,1.282720563881438,1.0563580989837646,1.1167213916778564,6922,[],[],[]
2020-04-26,1.1204940954356186,1.1242668628692627,1.071448802947998,1.1242668628692627,3241,[],[],[]
2020-05-03,1.1167213916778564,1.2299025943590765,1.1167213615744416,1.1242668628692627,8878,[],[],[]
2020-05-10,1.1242668628692627,1.3581745342515308,1.1242668628692627,1.2600841522216797,14011,[],[],[]
2020-05-17,1.2638568878173828,1.3959017286361637,1.2638568878173828,1.320447564125061,7340,[],[],[]
2020-05-24,1.3204475262548534,1.373265504837036,1.2978113045352313,1.373265504837036,2760,[],[],[]
2020-05-31,1.3657200585463518,1.4109925031661987,1.2978113889694214,1.3959016799926758,2531,[],[],[]
2020-06-07,1.3959016799926758,1.5392645597457886,1.3657200084120273,1.5392645597457886,3914,[],[],[]
2020-06-14,1.5392645597457886,1.5392645597457886,1.4411742687225342,1.4411742687225342,3368,[],[],[]
2020-06-21,1.569446325302124,1.7052637743687011,1.5694462546694703,1.667536735534668,22978,[],[],[]
2020-06-28,1.7354453163991606,1.7354453163991606,1.5619007349014282,1.5619007349014282,3126,[],[],[]
2020-07-05,1.6750822067260742,1.6750822067260742,1.5845370292663574,1.622264266014099,1638,[],[],[]
2020-07-12,1.7278998772009575,1.7278998772009575,1.3581746912638684,1.47135591506958,15493,[],[],[]
2020-07-19,1.4789013862609863,1.5468099907565505,1.3959017191766694,1.4600377082824707,8387,[],[],[]
2020-07-26,1.4600377082824707,1.4600377326004548,1.392129040419346,1.4600377082824707,5059,[],[],[]
2020-08-02,1.4600377811757648,1.4600377811757648,1.335538387298584,1.335538387298584,5592,[],[],[]
2020-08-09,1.3581745624542236,2.6258044826297002,1.3581745624542236,2.497532367706299,789537,[],[],[]
2020-08-16,2.716349204065359,2.987984232409917,1.5468099043171346,1.6373549699783323,914906,[],[],[]
2020-08-23,1.6750821196355217,1.6750821196355217,1.395901813880786,1.4260834455490112,119792,[],[],[]
2020-08-30,1.418537974357605,1.6599911993724803,1.3732655288746596,1.5468099117279053,127186,[],[],[]
2020-09-06,1.6222642637047284,1.6599912677307707,1.3732654565661448,1.5543553829193115,213653,[],[],[]
2020-09-13,1.5769916054010444,1.6599913988610064,1.4260832986487368,1.4977649450302124,158890,[],[],[]
2020-09-20,1.4977647764615274,1.6298095830712687,1.4411741813599037,1.4411742687225342,67557,[],[],[]
2020-09-27,1.4939921566367345,1.509082961071572,1.4109925350564714,1.414765238761902,55643,[],[],[]
2020-10-04,1.4336287572890571,1.5769916888739175,1.3657199698517863,1.4487196207046509,43014,[],[],[]
2020-10-11,1.4562649866320854,1.961807798629352,1.4411741813599037,1.7505362033843994,389800,[],[],[]
2020-10-18,1.8486267819520406,1.969353311453092,1.5845370372203877,1.5996278524398804,274022,[],[],[]
2020-10-25,1.5845369739400623,1.727900013220582,1.516628384590149,1.516628384590149,128500,[],[],[]
2020-11-01,1.576991549352905,1.6599913555969583,1.4449468851089478,1.4449468851089478,85522,[],[],[]
2020-11-08,1.4449469501735193,1.6675366752246819,1.4449469501735193,1.5543553829193115,25830,[],[],[]
2020-11-15,1.6901729747486955,1.7354452628898753,1.561900861608542,1.6373549699783323,39091,[],[],[]
2020-11-22,1.7656269690424475,1.7656269690424475,1.4789012839142406,1.5241738557815552,111332,[],[],[]
2020-11-29,1.5619007821071433,1.5769916772842407,1.5090829299306479,1.5769916772842407,50272,[],[],[]
2020-12-06,1.5769916460992621,1.7203545819484363,1.516628384590149,1.6449004411697388,122715,[],[],[]
2020-12-13,1.6524459825685662,1.6750822067260742,1.56944612575826,1.6298096179962158,74556,[],[],[]
2020-12-20,1.6298096545942844,1.6298096545942844,1.5619008065507474,1.5845370292663574,47091,[],[],[]
2020-12-27,1.6298097700499348,1.6298097700499348,1.569446325302124,1.6147187948226929,16146,[],[],[]
2021-01-03,1.614718811406447,1.7505361793893208,1.5996278166280973,1.7052637338638306,50165,[],[],[]
2021-01-10,1.7354453802108765,1.841081275573213,1.7128091572394788,1.7505362033843994,159341,[],[],[]
2021-01-17,1.8108996448091788,1.9467169046401975,1.7052637572383473,1.9467169046401975,160080,[],[],[]
2021-01-24,1.9316261553333127,2.074989242465598,1.8863535747594196,1.9240806102752688,58801,[],[],[]
2021-01-31,1.9240808701910261,1.946716756789946,1.7354452870110777,1.90144431591034,97612,[],[],[]
2021-02-07,1.9014445693992637,2.022171347774151,1.7958087921142578,1.9542624950408938,74024,[],[],[]
2021-02-14,2.022171258926392,2.4069875250685344,1.901444554846841,2.2258975505828857,182618,[],[],[]
2021-02-21,2.3390784567484504,2.3390784567484504,2.074989049231493,2.0825345516204834,79535,[],[],[]
2021-02-28,2.074989330982076,2.173079252243042,1.9768988398943108,2.135352373123169,44440,[],[],[]
2021-03-07,2.1353520394733927,2.293805757436534,2.022170940854495,2.173079252243042,86248,[],[],[]
2021-03-14,2.2938061880678573,2.3013517485104438,2.1730796602095803,2.2183516025543213,29626,[],[],[]
2021-03-21,2.256079033056561,2.467350914386211,2.1881700990459767,2.293806314468384,136881,[],[],[]
2021-03-28,2.346624108570047,2.414532962255465,2.007080411650577,2.150443315505981,135548,[],[],[]
2021-04-04,2.165534053445121,2.165534053445121,2.044807195663452,2.0598981380462646,19119,[],[],[]
2021-04-11,2.120261590982017,2.142897700406033,2.0523528107634004,2.097625255584717,55122,[],[],[]
2021-04-18,2.13535242174364,2.1579888250667976,1.9919896758277067,2.007080554962158,57912,[],[],[]
2021-04-25,2.0372618967195124,2.0523529576087802,1.8486267614395926,1.9089900255203247,54514,[],[],[]
2021-05-02,1.969352977229749,2.135352287343583,1.8938991070466178,1.9467169046401975,35054,[],[],[]
2021-05-09,2.0146256754100027,2.0146256754100027,1.9240806102752688,1.9618078470230107,11080,[],[],[]
2021-05-16,1.9618078470230107,1.9618078815909654,1.886353611946106,1.886353611946106,14842,[],[],[]
2021-05-23,1.8863536793923847,1.8863536793923847,1.6826276877816464,1.742990732192993,167638,[],[],[]
2021-05-30,1.8033542077197775,1.8486266448538813,1.742990767279047,1.7958087921142578,32736,[],[],[]
2021-06-06,1.8108994741266025,1.8108996366789116,1.697718334169367,1.7505362033843994,39222,[],[],[]
2021-06-13,1.8108996448091788,1.8108996448091788,1.7128091724877827,1.7656270265579226,65629,[],[],[]
2021-06-20,1.7807176663105815,1.8486266417838781,1.7128091724877827,1.7354453802108765,45897,[],[],[]
2021-06-27,1.7731724184965396,1.7731724184965396,1.7203545570373535,1.7203545570373535,27383,[],[],[]
2021-07-04,1.773172467997433,1.773172467997433,1.6449005197028594,1.682627558708191,38201,[],[],[]
2021-07-11,1.6826275266109483,1.7807177692735703,1.6826275266109483,1.7278999090194702,46657,[],[],[]
2021-07-18,1.7354453956606997,1.80335406714677,1.6901729740469973,1.697718381881714,31034,[],[],[]
2021-07-25,1.7354454133156547,1.7354454133156547,1.6449004411697388,1.7128092050552368,35747,[],[],[]
2021-08-01,1.7203545570373535,1.7354453802108765,1.6599912426022545,1.7354453802108765,20974,[],[],[]
2021-08-08,1.7656270187664167,1.80335406714677,1.69017294185633,1.7354453802108765,46260,[],[],[]
2021-08-15,1.7958088373518557,1.9768986475910153,1.7279001380608694,1.9165351390838625,145697,[],[],[]
2021-08-22,1.9165353882951905,1.9165353882951905,1.7203544104719255,1.886353611946106,52904,[],[],[]
2021-08-29,1.8788083568301315,1.9165354335304166,1.7354454613915027,1.886353611946106,54720,[],[],[]
2021-09-05,1.8788082046941896,1.886353764693035,1.77317232327066,1.7958087921142578,32024,[],[],[]
2021-09-12,1.856172260415393,1.8863536909678102,1.7882634050998327,1.8108996152877808,13844,[],[],[]
2021-09-19,1.8863536909678102,1.8863536909678102,1.773172323270241,1.8108996152877808,8114,[],[],[]
2021-09-26,1.8108996448091788,1.8108996528004673,1.7429907956933908,1.8108996152877808,24165,[],[],[]
2021-10-03,1.8108996152877808,1.871263027191162,1.7354453490616528,1.788263201713562,38835,[],[],[]
2021-10-10,1.7882631377740703,1.8108996872330196,1.6977183893196879,1.7128092050552368,53426,[],[],[]
2021-10-17,1.7354453802108765,1.750536220969541,1.667536735534668,1.667536735534668,24994,[],[],[]
2021-10-24,1.6675367986735716,1.7429908791985993,1.6675367986735716,1.6901729106903076,6196,[],[],[]
2021-10-31,1.7128091414514124,1.7354453802108765,1.6599912883383403,1.7278999090194702,20816,[],[],[]
2021-11-07,1.727899956626576,1.7505362872511019,1.6599913427081299,1.697718381881714,14781,[],[],[]
2021-11-14,1.7052637092143412,1.758081555366516,1.6599912643432615,1.758081555366516,31600,[],[],[]
2021-11-21,1.765626962818431,1.765626962818431,1.6750822067260742,1.6750822067260742,7615,[],[],[]
2021-11-28,1.584536959730098,1.5920824614765405,1.3883563361092564,1.403447151184082,151574,['RSI_OVERSOLD'],['RSI_OVERSOLD'],[]
2021-12-05,1.403447159196623,1.5392645428832459,1.403447159196623,1.501537561416626,54789,[],[],[]
2021-12-12,1.4487196127764523,1.83353590965271,1.4260834104627318,1.83353590965271,469432,[],[],[]
2021-12-19,1.8335358297854174,1.8637175411043239,1.7882631495960808,1.83353590965271,135011,[],[],[]
2021-12-26,1.8637175411043239,1.8788082599639893,1.83353590965271,1.8788082599639893,27715,[],[],[]
2022-01-02,1.8712628524901058,1.946717108974386,1.8410812225945727,1.886353611946106,95498,[],[],[]
2022-01-09,1.8863536674378725,1.9316261122811724,1.8788082599639893,1.8788082599639893,15332,[],[],[]
2022-01-16,1.908990068082774,1.908990068082774,1.8637174367904663,1.886353611946106,32991,[],[],[]
2022-01-23,1.9089900255203247,1.9165352409537721,1.8637174367904663,1.8637174367904663,41329,[],[],[]
2022-01-30,1.863717668795263,1.863717668795263,1.7278999090194702,1.7278999090194702,281877,[],[],[]
2022-02-06,1.7203546129230114,1.7731724184965396,1.6750821509071243,1.682627558708191,8467,[],[],[]
2022-02-13,1.7203545570373535,1.773172402152066,1.6750820955865577,1.7052637338638306,6002,[],[],[]
2022-02-20,1.727899948449682,1.7731724103959887,1.6750820955865577,1.7731722593307495,4589,[],[],[]
2022-02-27,1.7731722593307495,1.7731724073607533,1.5996278524398804,1.7354453802108765,10439,[],[],[]
2022-03-06,1.7429907379004372,1.7429907379004372,1.5845370017464515,1.6449004411697388,29080,[],[],[]
2022-03-13,1.682627558708191,1.682627558708191,1.5996278524398804,1.6599912643432615,1290,[],[],[]
2022-03-20,1.6599912932145586,1.8712628758318044,1.5996278524398804,1.8108996152877808,53521,[],[],[]
2022-03-27,1.8259904601911958,1.8259904601911958,1.6373549699783323,1.7128092050552368,33381,[],[],[]
2022-04-03,1.8938989561601816,3.772707299151396,1.8863535491594117,3.259619235992432,2237348,[],[],[]
2022-04-10,3.221892314976111,3.221892314976111,2.663531257801916,2.769167184829712,375684,[],[],[]
2022-04-17,2.7691672320193206,2.980439020763057,2.7088037925352872,2.8823485374450684,70511,[],[],[]
2022-04-24,2.889893671655923,2.9879841269088256,2.776712545598677,2.791803359985352,89644,[],[],[]
2022-05-01,2.7389855266888112,2.980439010545664,2.6786223335676036,2.738985776901245,83339,[],[],[]
2022-05-08,2.791803661586861,2.9049846331755664,2.7540766215444816,2.7616217136383057,30363,[],[],[]
2022-05-15,2.7616217484097896,2.859712042534027,2.716349401605384,2.791803359985352,26773,[],[],[]
2022-05-22,2.821985181267637,2.874802921988976,2.738985696478902,2.8521668910980225,30846,[],[],['hanging_man']
2022-05-29,2.8521669056231382,3.0030750255940384,2.791803641979278,2.935166358947754,38533,[],[],[]
2022-06-05,2.9653478614389286,3.1992555771137714,2.8823482036439896,3.0483477115631104,62739,[],[],[]
2022-06-12,3.0936199508508007,3.108710765838623,2.9276209383439777,3.0181658267974854,41976,[],[],[]
2022-06-19,3.0106205362653333,3.055893055171346,2.882348426081392,3.040802240371704,29204,[],[],[]
2022-06-26,3.0408024834568184,3.0558932994628365,2.9125298933781587,2.927620887756348,26183,[],[],[]
2022-07-03,2.9200755056172505,3.0106205631818845,2.9200755056172505,2.9502573013305664,24949,[],[],[]
2022-07-10,3.0030752635450564,3.0936201146014164,2.9427119567353683,3.040802240371704,22360,[],[],[]
2022-07-17,3.040802340977271,3.0936199005087417,2.9276210150017654,3.0558931827545166,24819,[],[],[]
2022-07-24,3.0634381771087646,3.0936200414320094,3.010620556568763,3.0558931827545166,38244,[],[],[]
2022-07-31,3.0483476104413123,3.138892284254333,3.0181660795510745,3.1238014698028564,38544,[],[],[]
2022-08-07,3.123801679362759,3.546344920457766,3.123801679362759,3.501072406768799,110105,[],[],[]
2022-08-14,3.51616334443549,3.538799748192472,3.4105276330875838,3.5237085819244385,39905,[],[],[]
2022-08-21,3.5237084776186958,3.546344518661499,3.380345868536162,3.4784367084503174,39938,[],[],[]
2022-08-28,3.4784361034839115,3.538799625120552,3.410527259446174,3.470890760421753,22397,[],[],[]
2022-09-04,3.4859812628228433,3.76516209902057,3.4708904488631793,3.629344701766968,138919,[],[],[]
2022-09-11,3.6368900998175437,3.6368900998175437,3.3501641777760844,3.591617584228516,134328,[],[],[]
2022-09-18,3.5040166383003832,3.652937412261963,3.109814935874738,3.346336126327514,107460,[],[],[]
2022-09-25,3.3463363862051216,3.574096943107274,2.9170939922332764,3.153614997863769,74546,[],[],[]
2022-10-02,3.136094966392905,3.1536150336689577,2.680572874326205,2.73313307762146,30643,[],[],[]
2022-10-09,2.733133052929614,3.066014691507115,2.470331829971871,2.969654321670532,37713,[],[],[]
2022-10-16,3.066014691507115,3.1360950469970703,2.8557737545197104,3.0660147666931152,15545,[],[],[]
2022-10-23,3.0222145290985627,3.0222145290985627,2.7506535053253174,2.7506535053253174,17750,[],[],[]
2022-10-30,2.7418931319894577,2.8820536644809995,2.6280124904844127,2.8207335472106934,23598,[],[],[]
2022-11-06,2.8470137119293213,2.9959344404572654,2.7681733560798856,2.8908138275146484,22767,[],[],[]
2022-11-13,2.9346140456387007,3.223695574963085,2.9170939779938356,3.214935541152954,20068,[],[],[]
2022-11-20,3.2674955674634187,3.3112957341474454,3.030974459613287,3.1010546684265137,44600,[],[],[]
2022-11-27,3.1886555714336806,3.1886555714336806,3.0397346074467264,3.118574857711792,22079,[],[],[]
2022-12-04,3.1360952264844606,3.2850157577374994,3.066014951568153,3.27625584602356,42626,[],[],[]
2022-12-11,3.293775667473835,3.293775667473835,3.162374958566086,3.27625584602356,19489,[],[],[]
2022-12-18,3.241215423326492,3.2762556762593893,3.1536148822953796,3.197415590286255,20611,[],[],[]
2022-12-25,3.2061755023907774,3.241215847714615,3.1448548918924755,3.144855260848999,15964,[],[],[]
2023-01-01,3.144855017019839,3.223695356891403,3.109814824190072,3.1711349487304688,7936,[],[],[]
2023-01-08,3.293775728777925,3.591617274597028,3.1536149839246845,3.460216999053955,94561,[],[],[]
2023-01-15,3.4952566045618454,3.679217198906491,3.3550962611777733,3.4777369499206543,53053,[],[],[]
2023-01-22,3.495256506045695,3.933258644348048,3.451456341078839,3.670457601547241,93133,[],[],[]
2023-01-29,3.836898441213643,3.836898441213643,3.547817126194088,3.670457601547241,34445,[],[],[]
2023-02-05,3.6704576358535124,4.204820559272848,3.6704576358535124,3.915738582611084,46213,[],[],[]
2023-02-12,3.9858192693526755,4.117219564928697,3.8544184286902063,3.889458656311035,27789,[],[],[]
2023-02-19,3.8894588908974117,4.0033396735855655,3.8106183753222305,3.968299150466919,9471,[],[],[]
2023-02-26,3.977059125900269,4.099699720719629,3.942018733154871,4.029619216918945,11596,[],[],['shooting_star']
2023-03-05,4.047139494392186,4.0996994972229,3.950779009775038,3.994579076766968,17385,[],[],[]
2023-03-12,3.994578946576601,4.362500763106648,3.994578946576601,4.108459949493408,27018,[],[],[]
2023-03-19,4.047139527230506,4.187300335989529,3.9858194971797074,4.161019802093506,17787,[],[],[]
2023-03-26,4.169780278346384,4.169780278346384,4.055899388568721,4.090939521789551,8623,[],[],[]
2023-04-02,4.0996994972229,7.533636445989226,4.07341960519511,6.289710521697998,696857,[],[],[]
2023-04-09,6.237150058570885,6.447391292370289,5.045784921450724,5.413705825805664,341971,[],[],[]
2023-04-16,5.413705933156369,5.448746068564913,5.080824514164832,5.203464984893799,65813,[],[],[]
2023-04-23,5.203465344141075,5.466266231023868,4.782983078864789,5.098344802856445,133241,[],[],[]
2023-04-30,5.203465424573501,5.658987629197206,5.150905151218548,5.396185874938965,94193,[],[],[]
2023-05-07,5.185944797018923,6.3422699575990995,5.185944797018923,5.851707458496094,122339,[],[],[]
2023-05-14,5.92178874082985,5.974349072145776,5.641467344947459,5.816667556762695,36116,[],[],[]
2023-05-21,5.956828271924461,5.956828271924461,5.694026864920525,5.886748313903809,18356,[],[],['hanging_man']
2023-05-28,5.886747590401776,5.886747590401776,4.905623868850171,5.133385181427002,94299,[],[],[]
2023-06-04,5.133384692960625,5.133384692960625,4.7129027063421685,4.818022727966309,34037,[],[],[]
2023-06-11,4.835543488841497,5.343625771844181,4.818023420384916,5.256025314331055,30795,[],[],[]
2023-06-18,5.168425207227914,5.956828885756556,4.958183968037563,5.904268264770508,73113,[],[],[]
2023-06-25,5.99186861163492,6.7452324398817245,5.816668001255888,6.39483118057251,113368,[],[],[]
2023-07-02,6.307229995727539,6.885393308020074,6.219629432415314,6.745232105255127,36876,[],[],[]
2023-07-09,6.8328328585455,7.078113751258683,6.272190186576324,6.83283281326294,82693,[],[],[]
2023-07-16,6.885393661023177,6.990514072895559,5.746587847062515,6.096989631652832,120108,[],[],[]
2023-07-23,6.079469790294269,6.307229995727539,5.78162719468473,6.307229995727539,36793,[],[],[]
2023-07-30,6.289710287279196,6.5525113399168555,6.061949402289893,6.219629764556885,33087,[],[],[]
2023-08-06,6.342270117684225,6.35979105972974,5.869228318723237,5.974348545074463,21702,[],[],[]
2023-08-13,5.991869253246158,6.020038433164008,5.574769333361051,5.877552032470703,18091,[],[],[]
2023-08-20,5.877552032470703,6.020038618473185,5.5391473264255335,5.628201484680176,23684,[],[],[]
2023-08-27,5.628201530502272,5.877552323336951,5.628201530502272,5.717255592346191,9093,[],[],[]
2023-09-03,5.788498622224086,6.002227487781759,5.592580181044013,5.788498401641846,20888,[],[],[]
2023-09-10,5.913173526483603,6.055659770965576,5.841930538457802,5.895362854003906,19649,[],[],[]
2023-09-17,5.895362960948557,5.966606066502501,5.62820189017198,5.841930866241455,12172,[],[],[]
2023-09-24,5.841930643623073,5.8597411139383055,5.539147472753204,5.592580318450928,4081,[],[],[]
2023-10-01,5.681633982091694,5.699444471570532,5.343229112477054,5.467904567718506,15766,[],[],[]
2023-10-08,5.521336735080529,5.646012618988689,5.200743207607067,5.450093746185303,25242,[],[],[]
2023-10-15,5.5213363524241785,5.646012306213379,5.271986125586699,5.646012306213379,13934,[],[],[]
2023-10-22,5.646012600794743,5.948795127585527,5.610391105019018,5.788498401641846,12982,[],[],[]
2023-10-29,5.788498475620347,5.948795127585527,5.539147585212807,5.9309844970703125,10296,[],[],[]
2023-11-05,5.9309841500351,6.3228213957729595,5.735065837251957,6.269389152526856,31729,[],[],[]
2023-11-12,6.322821037421853,6.465307435977649,6.162524417028043,6.322821140289307,12910,[],[],[]
2023-11-19,6.322821140289307,6.500929450056177,6.144713772825071,6.305010795593262,29387,[],[],[]
2023-11-26,6.483118333131254,6.732469192087657,6.322821184117154,6.589982509613037,35037,[],[],[]
2023-12-03,5.646012203863662,5.8953626567636706,5.325418339779098,5.735065937042236,109129,[],[],[]
2023-12-10,5.735065888542639,5.788498401641846,5.503525978367014,5.663823127746582,32012,[],[],[]
2023-12-17,5.663823127746582,5.770687534923469,5.521336552771962,5.610390663146973,20059,[],[],[]
2023-12-24,5.699444395572448,6.16252425024761,5.521336506079805,6.055659770965576,23218,[],[],[]
2023-12-31,5.966605937552432,6.180335332362868,5.895362947496191,6.126903057098389,11162,[],[],[]
2024-01-07,6.269388729529642,6.305010222623653,5.628201574380401,5.877552032470703,30771,[],[],[]
2024-01-14,6.037849442721199,6.0556601905021346,5.770687728065646,5.806309223175049,32968,[],[],[]
2024-01-21,5.806309028840638,6.233767509460449,5.628201559254794,6.233767509460449,57620,[],[],[]
2024-01-28,6.305010143782692,6.696847063781292,6.305010143782692,6.465307235717773,51018,[],[],[]
2024-02-04,6.4653073108564,6.679036267591312,6.162524459744762,6.536550521850586,12218,[],[],[]
2024-02-11,6.589982770366453,6.661225758482571,5.966605874912602,6.215956687927246,29742,[],[],[]
2024-02-18,6.215956794193074,6.661225650109533,5.913173373947839,6.376253604888916,50066,[],[],[]
2024-02-25,6.768089996973573,7.5695750146392395,6.625604025871505,7.498332023620605,281421,[],[],[]
2024-03-03,7.658628873140606,8.175141091320254,7.569574713271112,8.103898048400879,55868,[],[],[]
2024-03-10,8.139519384066505,9.306123940481482,8.139519384066505,8.477924346923828,94760,[],[],[]
2024-03-17,8.513545715176406,8.869760715653914,7.85454679014947,8.584789276123047,58835,[],[],[]
2024-03-24,8.58478861179876,9.795921356966225,8.10389801451796,9.751394271850586,30375,[],[],[]
2024-03-31,9.706865930058136,10.820040008725544,8.745084752922534,10.419297218322754,100459,[],[],[]
2024-04-07,10.241190123500822,12.912804126739502,10.241190123500822,12.467535018920898,77603,[],[],[]
2024-04-14,12.467534550486489,12.868276562609735,10.063082418837698,10.330244064331056,101671,[],[],[]
2024-04-21,10.19666174890337,11.398889273300393,9.884973902878109,11.04267406463623,57864,[],[],[]
2024-04-28,10.998147745692686,11.176255226135254,10.597404935428585,10.998147010803224,19024,[],[],[]
2024-05-05,10.998147533771666,11.799631384619508,10.686458612485593,11.532469749450684,18409,[],[],[]
2024-05-12,11.042673766061744,11.532469749450684,10.864566086170333,11.398889541625977,27968,[],[],[]
2024-05-19,11.398889569366492,11.799631144778383,11.131727747413807,11.755104064941406,16754,[],[],[]
2024-05-26,11.75510432746569,12.378480911254885,11.621523934254942,11.977738380432127,43671,[],[],['shooting_star']
2024-06-02,12.066793019788333,12.378480886415772,10.196662238273294,11.710577011108398,51973,[],[],[]
2024-06-09,11.710577716467713,12.200373926697,11.443417104314614,11.79963207244873,17974,[],[],[]
2024-06-16,11.799631825199832,12.022266387939451,11.087200793881275,11.576996803283691,17337,[],[],[]
2024-06-23,11.576996830192725,11.576996830192725,10.597404373644453,10.7755126953125,20362,[],[],[]
2024-06-30,10.686459073085235,11.487943104588881,10.241189945040016,10.90909194946289,45545,[],[],[]
2024-07-07,10.909093169034266,11.30983486843006,10.063081810554873,11.04267406463623,39109,[],[],[]
2024-07-14,11.220782092355842,11.755104276554448,11.176255010782317,11.6215238571167,20683,[],[],[]
2024-07-21,11.62152391319523,11.710577225413207,10.463824060094092,10.820038795471191,47538,[],[],[]
2024-07-28,10.820038795471191,11.265306857078958,10.330243822013582,10.50835132598877,21801,[],[],[]
2024-08-04,10.686459603396491,10.686459603396491,9.17254308321333,9.617812156677246,25752,[],[],[]
2024-08-11,9.083489629642827,9.439704994102689,8.19295141400562,9.2615966796875,60340,['hammer'],['hammer'],[]
2024-08-18,9.1280168848691,10.018555117539254,9.1280168848691,10.0185546875,20829,[],[],[]
2024-08-25,9.795920559371716,10.597403984580763,9.43970560601703,9.751394271850586,22061,[],[],[]
2024-09-01,9.528758737461429,11.13172721862793,9.484231656822882,11.13172721862793,22940,[],[],[]
2024-09-08,10.864566582809866,11.443416960349888,10.508351114375728,10.686458587646484,27947,[],[],[]
2024-09-15,10.816441547349312,11.51277900882087,9.93441390991211,10.584328651428224,23157,[],[],[]
2024-09-22,10.58432855595309,10.955709048975288,10.212949201795789,10.677173614501951,9850,[],[],[]
2024-09-29,10.677175129621599,10.770020484924316,9.934413533796663,10.677173614501951,15038,[],[],[]
2024-10-06,10.677174742873447,11.094976987302609,10.212949754052863,10.816441535949709,15167,[],[],[]
2024-10-13,10.58432893582849,10.955710310090817,10.58432893582849,10.723596572875977,12028,[],[],[]
2024-10-20,10.723597072448008,10.816441535949709,10.445061144621475,10.677173614501951,16735,[],[],[]
2024-10-27,10.58432977431888,11.419934253052757,10.259372041668772,10.305794715881348,20871,[],[],[]
2024-11-03,10.58432893582849,10.95570945739746,10.25937198888993,10.95570945739746,8355,[],[],[]
2024-11-10,10.955708914984111,11.187822058064134,10.212949367456199,10.584328651428224,29664,[],[],[]
2024-11-17,10.537906864140682,10.862864210419996,10.259371345804853,10.816441535949709,12569,[],[],[]
2024-11-24,10.816441885344062,11.605624586709073,10.305794385947618,11.512779235839844,84807,[],[],[]
2024-12-01,11.837737394426686,14.715931320144072,11.837737394426686,14.623085975646973,128763,[],[],[]
2024-12-08,14.623086980827422,15.783649439623249,14.390974449877781,14.901620864868164,63675,[],[],[]
2024-12-15,14.9016206482554,15.31942382454872,13.13756662751328,14.20528507232666,54053,[],[],[]
2024-12-22,14.483819224544936,14.66950903297472,13.601791404115295,14.112439155578612,22642,[],[],[]
2024-12-29,14.298128273710727,15.783650185749867,14.251706486516712,15.737228393554688,27067,[],[],[]
2025-01-05,15.783648042299424,18.24404038679127,15.783648042299424,17.547704696655273,45607,[],[],[]
2025-01-12,17.640548030032388,19.404602478860106,17.640548030032388,18.5225772857666,36373,[],[],[]
2025-01-19,18.47615258254261,20.797277450561523,17.91908229057658,20.797277450561523,55374,[],[],[]
2025-01-26,20.79727825074466,21.725728188464313,20.054518237314824,21.075815200805664,62437,[],[],[]
2025-02-02,21.075814061147845,22.839868506105514,20.518743750510716,22.1899528503418,51940,[],[],[]
2025-02-09,22.189953418051427,22.65417670615906,20.518743909024533,22.56133270263672,77189,[],[],[]
2025-02-16,22.74702418994978,23.211249741569567,22.468488366170536,22.74702262878418,66656,[],[],['shooting_star']
2025-02-23,22.747022915675895,24.046853451983125,22.65417757000781,23.954008102416992,39046,[],[],[]
2025-03-02,23.95400767003005,24.046853017920256,20.890123083236368,21.63288307189941,39319,[],[],[]
2025-03-09,21.35434856755199,23.396938269386215,19.31175806935603,22.282798767089844,65869,[],[],[]
2025-03-16,22.6541783923658,22.83986909044264,20.982968946639673,21.26150321960449,22941,[],[],[]
2025-03-23,21.075814633498133,23.118402524606054,20.890123934617105,21.26150321960449,39893,[],[],[]
2025-03-30,21.354347229003903,25.903753625773383,20.982967631370663,25.625219345092773,105021,[],[],[]
2025-04-06,25.06814842987483,25.439528052438177,22.468489157447763,23.21124839782715,51176,[],[],[]
2025-04-13,22.28279767717634,24.51107819517316,21.261502429463565,23.21124839782715,49813,[],[],[]
2025-04-20,23.582628815961748,23.67547416687012,22.37564277648925,22.65417861938477,32772,[],[],[]
2025-04-27,22.65417939359634,23.489783243764872,22.375644557350643,23.025558471679688,20811,[],[],[]
2025-05-04,23.02555746830119,23.211249741569567,22.004263734871888,22.468488693237305,18759,[],[],[]
2025-05-11,22.468489908219873,23.11840382254892,22.28279767717634,22.74702262878418,21064,[],[],[]
2025-05-18,22.932714669291258,25.25383810372744,22.097107766380358,24.69676780700684,52432,[],[],[]
2025-05-25,24.78961527981651,30.63884764909745,24.3253902878415,27.57496452331543,143699,[],[],[]
2025-06-01,27.667806636519746,29.710398493122568,27.389272371600303,29.524707794189453,47678,[],[],[]
2025-06-08,29.524707455410425,32.03152387282428,28.039188964501964,31.1959171295166,38496,[],[],[]
2025-06-15,31.195916326896235,31.56729771673648,28.967637688680302,30.54600524902344,28356,[],[],[]
2025-06-22,30.54600454428881,35.28109968030775,29.8960888757763,34.3526496887207,60912,[],[],[]
2025-06-29,34.07411533202966,35.00256532177568,32.7742810348452,33.51704025268555,42649,[],[],[]
2025-07-06,33.51703853352153,37.32368884930865,31.845829493661967,37.0451545715332,55042,[],[],[]
2025-07-13,37.416532566874075,45.86542851375659,37.416532566874075,40.8517951965332,167752,[],[],[]
2025-07-20,40.85179610734674,44.379908306607085,40.85179610734674,42.61585235595703,67322,[],[],[]
2025-07-27,42.70869693727378,42.70869693727378,37.04515146252864,38.43782806396485,82008,[],[],['evening_star']
2025-08-03,38.43782820610932,41.68740463256836,38.43782820610932,39.273433685302734,36345,[],[],[]
2025-08-10,39.273430682312,41.25887746419105,38.90205284149605,40.0993766784668,23637,[],[],[]
2025-08-17,39.61625107814286,40.969002589338025,36.3309980809035,37.00737380981445,37851,[],[],[]
2025-08-24,37.00737347240092,42.708252619344165,35.26812472450073,40.77574920654297,83495,[],[],[]
2025-08-31,40.58249984967507,42.99812689492869,39.2297483803054,39.71287536621094,51910,[],[],[]
2025-09-07,39.7128740045733,45.02724697602423,38.263498987093236,44.060997009277344,67794,[],[],[]
2025-09-14,44.15762659264003,47.24962738973049,43.67450002025857,45.41374969482422,36654,[],[],['shooting_star']
2025-09-21,45.41375075500909,50.051749096181666,44.64075147934813,48.69900131225586,52726,[],[],[]
2025-09-28,49.27875045308597,51.4044992045561,48.31250044420193,49.47200012207031,43734,[],[],[]
2025-10-05,50.82474836013243,50.82474836013243,45.02724956258134,46.86312484741211,43861,[],[],[]
2025-10-12,46.573251208523125,46.959748372717,42.99812530114662,46.86312484741211,54603,[],[],[]
2025-10-19,46.38,49.47200229081249,44.44750118888731,47.34624862670898,59964,[],[],[]
2025-10-26,47.73275147438049,49.08550080429428,47.442872767179814,48.02262496948242,25886,[],[],['shooting_star']
2025-11-02,48.02262713691618,49.85849991506684,46.379998803786265,49.278751373291016,33865,[],[],[]
2025-11-09,49.278748802629174,50.63150084484368,46.6698729091372,47.34624862670898,28510,[],[],[]
2025-11-16,47.346250000000005,48.3125,46.76650208445849,47.15299987792969,8680,[],[],[]
2025-11-23,47.153001117637196,48.21587770494793,43.86775220368717,45.3171272277832,34255,[],[],[]
2025-11-30,45.3171261669421,48.11924972132937,43.48124970501648,47.53950119018555,36302,[],[],[]
2025-12-07,48.50574970604822,52.17750145407284,47.5395002984625,49.08549880981445,90058,[],[],[]
2025-12-14,49.278751373291016,50.051750657642565,47.4428730877835,49.278751373291016,26799,[],[],[]
2025-12-21,49.66525307203227,56.23575276259375,49.47200232862546,53.916748046875,51117,[],[],[]
2025-12-28,54.88299925807473,59.5210003855981,54.30325073250524,58.74800109863281,22536,[],[],[]
2026-01-04,58.94124984741211,59.907499844910674,55.07624896698708,57.20199966430664,33286,[],[],[]
2026-01-11,57.58849822013309,62.80625110268589,56.235750438879684,58.94124984741211,84073,[],[],[]
2026-01-18,58.36150224046675,58.94125077369636,53.530252177049015,54.30324935913086,70333,[],[],[]
2026-01-25,54.30324995760483,57.97499969204267,52.17749925093217,55.65599822998047,73113,[],[],[]
2026-02-01,55.65599852081779,57.202002304912064,53.14374880149799,55.84925079345703,46483,[],[],[]
2026-02-08,55.46275146959545,59.90749951066642,51.21124999558176,59.32775115966797,71192,[],[],[]
2026-02-15,59.3277499128977,60.68049766572317,55.07624911712139,56.81549835205078,52235,[],[],[]
2026-02-22,57.008749534343856,58.16825026206312,54.110000445048,55.07625198364258,20700,[],[],[]
2026-03-01,55.07624831927535,57.395249722888444,51.597752962848716,52.564002990722656,33759,[],[],[]
2026-03-08,51.597751327660006,55.07624937277573,48.505750599262,50.244998931884766,59388,[],[],[]
2026-03-15,49.278749387282886,52.564002264505156,45.70362427218789,46.47662353515625,59420,[],[],[]
2026-03-22,45.993497589288474,47.05637669603288,42.611621916480736,44.83400344848633,90067,[],[],[]
2026-03-29,43.48124835802162,49.08549942885677,41.54874843099843,48.02262496948242,72524,[],[],[]
2026-04-05,47.34624922279532,48.892246952906405,44.93062426244862,47.73274993896485,32880,[],[],[]
2026-04-12,47.63612550721233,51.88762604639666,45.70362545672946,51.21125030517578,82611,[],[],[]
2026-04-19,51.114627608824044,58.941249055164995,50.824749653629475,56.81549835205078,161050,[],[],[]
2026-04-26,57.008751161636845,63.772501250969945,56.81550042050883,60.29400253295898,114161,[],[],[]
2026-05-03,60.29400130907695,62.999496878518016,56.525626151792466,59.907501220703125,61172,[],[],[]
2026-05-10,60.39062514901161,65.51175200826466,60.004123673677434,63.09612655639648,81697,[],[],[]
2026-05-17,63.096126235712184,63.2893762414929,57.39525298784728,61.74337768554688,74000,[],[],[]
2026-05-24,61.83999954199527,63.77249936267009,55.269499096022685,56.5256233215332,129864,[],[],[]
2026-05-31,56.525624699741606,57.588500217370175,54.78637544617057,56.42900085449219,44624,[],[],[]
2026-06-07,55.84924803521442,57.20199919213932,55.65599730227192,56.04249954223633,34987,[],[],[]
2026-06-14,56.04249954223633,57.58849931642281,53.916748046875,54.49650192260742,33867,[],[],[]
2026-06-21,54.4965022227246,57.588499144074795,50.824749538881136,53.33700180053711,48020,[],[],[]
2026-06-28,53.33700058552413,53.82012558415034,50.148377982820826,51.694374084472656,29161,[],[],[]
2026-07-05,52.17749925093217,60.39062344970153,51.114625740571434,59.81087493896485,46762,[],[],[]
2026-07-12,60.390623788985,61.83999875992064,56.042500009127586,60.77712631225586,48192,[],[],[]
2026-07-19,61.260253497899896,61.84000204266938,58.36150132329347,59.13450241088867,32529,[],[],[]
2026-07-26,58.844624772403414,60.87375124039189,57.68512406874968,59.71424865722656,30373,[],[],[]
2026-08-02,59.90749939245699,60.39062640303146,58.36150132329347,58.94124984741211,25131,[],[],[]
2026-08-09,58.94125061210957,63.400001525878906,58.94125061210957,62.5,57273,[],[],[]
2026-08-16,62.5,62.79999923706055,58.59999847412109,60.0,38936,[],[],[]
2026-08-23,59.20000076293945,61.5,57.0,59.900001525878906,39974,[],[],[]
2026-08-30,60.20000076293945,61.5,56.0,56.29999923706055,62356,[],[],[]
2026-09-06,56.400001525878906,56.400001525878906,51.900001525878906,53.400001525878906,83786,[],[],[]
2026-09-13,54.400001525878906,56.0,53.29999923706055,55.70000076293945,67756,[],[],[]
2026-09-20,56.0,56.79999923706055,53.0,53.5,55374,[],[],[]
2026-09-27,53.900001525878906,56.400001525878906,53.900001525878906,55.59999847412109,40185,[],[],[]
